dt: 0.01
Time[s]     Moment_Rate [Nm]
    0.00		0.0000e+00
    0.01		3.8407e+11
    0.02		1.9202e+12
    0.03		5.3759e+12
    0.04		1.1518e+13
    0.05		2.1111e+13
    0.06		3.4920e+13
    0.07		5.3707e+13
    0.08		7.8231e+13
    0.09		1.0925e+14
    0.10		1.4752e+14
    0.11		1.9379e+14
    0.12		2.4881e+14
    0.13		3.1332e+14
    0.14		3.8806e+14
    0.15		4.7377e+14
    0.16		5.7118e+14
    0.17		6.8102e+14
    0.18		8.0400e+14
    0.19		9.4083e+14
    0.20		1.0922e+15
    0.21		1.2589e+15
    0.22		1.4415e+15
    0.23		1.6408e+15
    0.24		1.8574e+15
    0.25		2.0921e+15
    0.26		2.3453e+15
    0.27		2.6180e+15
    0.28		2.9106e+15
    0.29		3.2238e+15
    0.30		3.5582e+15
    0.31		3.9146e+15
    0.32		4.2934e+15
    0.33		4.6952e+15
    0.34		5.1208e+15
    0.35		5.5706e+15
    0.36		6.0453e+15
    0.37		6.5453e+15
    0.38		7.0712e+15
    0.39		7.6237e+15
    0.40		8.2031e+15
    0.41		8.8100e+15
    0.42		9.4450e+15
    0.43		1.0108e+16
    0.44		1.0801e+16
    0.45		1.1523e+16
    0.46		1.2275e+16
    0.47		1.3057e+16
    0.48		1.3870e+16
    0.49		1.4714e+16
    0.50		1.5589e+16
    0.51		1.6497e+16
    0.52		1.7437e+16
    0.53		1.8409e+16
    0.54		1.9415e+16
    0.55		2.0454e+16
    0.56		2.1526e+16
    0.57		2.2633e+16
    0.58		2.3774e+16
    0.59		2.4949e+16
    0.60		2.6159e+16
    0.61		2.7404e+16
    0.62		2.8685e+16
    0.63		3.0000e+16
    0.64		3.1352e+16
    0.65		3.2739e+16
    0.66		3.4162e+16
    0.67		3.5621e+16
    0.68		3.7116e+16
    0.69		3.8648e+16
    0.70		4.0216e+16
    0.71		4.1821e+16
    0.72		4.3462e+16
    0.73		4.5140e+16
    0.74		4.6855e+16
    0.75		4.8606e+16
    0.76		5.0394e+16
    0.77		5.2218e+16
    0.78		5.4080e+16
    0.79		5.5977e+16
    0.80		5.7912e+16
    0.81		5.9882e+16
    0.82		6.1890e+16
    0.83		6.3933e+16
    0.84		6.6012e+16
    0.85		6.8128e+16
    0.86		7.0279e+16
    0.87		7.2465e+16
    0.88		7.4688e+16
    0.89		7.6945e+16
    0.90		7.9237e+16
    0.91		8.1565e+16
    0.92		8.3926e+16
    0.93		8.6322e+16
    0.94		8.8752e+16
    0.95		9.1216e+16
    0.96		9.3712e+16
    0.97		9.6242e+16
    0.98		9.8805e+16
    0.99		1.0140e+17
    1.00		1.0403e+17
    1.01		1.0669e+17
    1.02		1.0937e+17
    1.03		1.1210e+17
    1.04		1.1485e+17
    1.05		1.1763e+17
    1.06		1.2044e+17
    1.07		1.2328e+17
    1.08		1.2614e+17
    1.09		1.2904e+17
    1.10		1.3196e+17
    1.11		1.3491e+17
    1.12		1.3789e+17
    1.13		1.4089e+17
    1.14		1.4392e+17
    1.15		1.4697e+17
    1.16		1.5005e+17
    1.17		1.5315e+17
    1.18		1.5627e+17
    1.19		1.5942e+17
    1.20		1.6259e+17
    1.21		1.6578e+17
    1.22		1.6899e+17
    1.23		1.7222e+17
    1.24		1.7546e+17
    1.25		1.7873e+17
    1.26		1.8202e+17
    1.27		1.8532e+17
    1.28		1.8864e+17
    1.29		1.9198e+17
    1.30		1.9533e+17
    1.31		1.9869e+17
    1.32		2.0207e+17
    1.33		2.0547e+17
    1.34		2.0887e+17
    1.35		2.1229e+17
    1.36		2.1572e+17
    1.37		2.1915e+17
    1.38		2.2260e+17
    1.39		2.2606e+17
    1.40		2.2952e+17
    1.41		2.3299e+17
    1.42		2.3647e+17
    1.43		2.3995e+17
    1.44		2.4344e+17
    1.45		2.4694e+17
    1.46		2.5043e+17
    1.47		2.5393e+17
    1.48		2.5743e+17
    1.49		2.6093e+17
    1.50		2.6444e+17
    1.51		2.6794e+17
    1.52		2.7144e+17
    1.53		2.7494e+17
    1.54		2.7844e+17
    1.55		2.8194e+17
    1.56		2.8544e+17
    1.57		2.8894e+17
    1.58		2.9244e+17
    1.59		2.9593e+17
    1.60		2.9942e+17
    1.61		3.0292e+17
    1.62		3.0640e+17
    1.63		3.0989e+17
    1.64		3.1337e+17
    1.65		3.1685e+17
    1.66		3.2033e+17
    1.67		3.2381e+17
    1.68		3.2728e+17
    1.69		3.3075e+17
    1.70		3.3421e+17
    1.71		3.3767e+17
    1.72		3.4113e+17
    1.73		3.4458e+17
    1.74		3.4803e+17
    1.75		3.5147e+17
    1.76		3.5491e+17
    1.77		3.5834e+17
    1.78		3.6177e+17
    1.79		3.6519e+17
    1.80		3.6861e+17
    1.81		3.7202e+17
    1.82		3.7542e+17
    1.83		3.7882e+17
    1.84		3.8222e+17
    1.85		3.8560e+17
    1.86		3.8898e+17
    1.87		3.9235e+17
    1.88		3.9572e+17
    1.89		3.9908e+17
    1.90		4.0243e+17
    1.91		4.0577e+17
    1.92		4.0911e+17
    1.93		4.1244e+17
    1.94		4.1576e+17
    1.95		4.1907e+17
    1.96		4.2237e+17
    1.97		4.2567e+17
    1.98		4.2895e+17
    1.99		4.3223e+17
    2.00		4.3550e+17
    2.01		4.3875e+17
    2.02		4.4200e+17
    2.03		4.4524e+17
    2.04		4.4847e+17
    2.05		4.5169e+17
    2.06		4.5490e+17
    2.07		4.5810e+17
    2.08		4.6129e+17
    2.09		4.6447e+17
    2.10		4.6764e+17
    2.11		4.7080e+17
    2.12		4.7394e+17
    2.13		4.7708e+17
    2.14		4.8020e+17
    2.15		4.8331e+17
    2.16		4.8641e+17
    2.17		4.8950e+17
    2.18		4.9258e+17
    2.19		4.9564e+17
    2.20		4.9870e+17
    2.21		5.0174e+17
    2.22		5.0476e+17
    2.23		5.0778e+17
    2.24		5.1078e+17
    2.25		5.1377e+17
    2.26		5.1675e+17
    2.27		5.1971e+17
    2.28		5.2266e+17
    2.29		5.2560e+17
    2.30		5.2852e+17
    2.31		5.3143e+17
    2.32		5.3433e+17
    2.33		5.3721e+17
    2.34		5.4008e+17
    2.35		5.4293e+17
    2.36		5.4577e+17
    2.37		5.4859e+17
    2.38		5.5140e+17
    2.39		5.5420e+17
    2.40		5.5698e+17
    2.41		5.5974e+17
    2.42		5.6250e+17
    2.43		5.6524e+17
    2.44		5.6797e+17
    2.45		5.7069e+17
    2.46		5.7340e+17
    2.47		5.7610e+17
    2.48		5.7880e+17
    2.49		5.8149e+17
    2.50		5.8417e+17
    2.51		5.8685e+17
    2.52		5.8953e+17
    2.53		5.9221e+17
    2.54		5.9489e+17
    2.55		5.9756e+17
    2.56		6.0024e+17
    2.57		6.0292e+17
    2.58		6.0561e+17
    2.59		6.0830e+17
    2.60		6.1099e+17
    2.61		6.1369e+17
    2.62		6.1640e+17
    2.63		6.1912e+17
    2.64		6.2184e+17
    2.65		6.2458e+17
    2.66		6.2733e+17
    2.67		6.3009e+17
    2.68		6.3286e+17
    2.69		6.3565e+17
    2.70		6.3845e+17
    2.71		6.4127e+17
    2.72		6.4410e+17
    2.73		6.4696e+17
    2.74		6.4983e+17
    2.75		6.5272e+17
    2.76		6.5563e+17
    2.77		6.5856e+17
    2.78		6.6152e+17
    2.79		6.6449e+17
    2.80		6.6749e+17
    2.81		6.7052e+17
    2.82		6.7356e+17
    2.83		6.7664e+17
    2.84		6.7974e+17
    2.85		6.8287e+17
    2.86		6.8602e+17
    2.87		6.8920e+17
    2.88		6.9242e+17
    2.89		6.9566e+17
    2.90		6.9893e+17
    2.91		7.0223e+17
    2.92		7.0556e+17
    2.93		7.0893e+17
    2.94		7.1233e+17
    2.95		7.1576e+17
    2.96		7.1922e+17
    2.97		7.2272e+17
    2.98		7.2625e+17
    2.99		7.2982e+17
    3.00		7.3342e+17
    3.01		7.3705e+17
    3.02		7.4072e+17
    3.03		7.4443e+17
    3.04		7.4818e+17
    3.05		7.5196e+17
    3.06		7.5578e+17
    3.07		7.5963e+17
    3.08		7.6352e+17
    3.09		7.6745e+17
    3.10		7.7142e+17
    3.11		7.7543e+17
    3.12		7.7947e+17
    3.13		7.8355e+17
    3.14		7.8767e+17
    3.15		7.9183e+17
    3.16		7.9603e+17
    3.17		8.0027e+17
    3.18		8.0454e+17
    3.19		8.0885e+17
    3.20		8.1320e+17
    3.21		8.1759e+17
    3.22		8.2202e+17
    3.23		8.2649e+17
    3.24		8.3099e+17
    3.25		8.3553e+17
    3.26		8.4011e+17
    3.27		8.4473e+17
    3.28		8.4938e+17
    3.29		8.5408e+17
    3.30		8.5880e+17
    3.31		8.6357e+17
    3.32		8.6837e+17
    3.33		8.7321e+17
    3.34		8.7808e+17
    3.35		8.8299e+17
    3.36		8.8793e+17
    3.37		8.9291e+17
    3.38		8.9792e+17
    3.39		9.0297e+17
    3.40		9.0805e+17
    3.41		9.1316e+17
    3.42		9.1831e+17
    3.43		9.2350e+17
    3.44		9.2872e+17
    3.45		9.3398e+17
    3.46		9.3928e+17
    3.47		9.4462e+17
    3.48		9.5000e+17
    3.49		9.5542e+17
    3.50		9.6089e+17
    3.51		9.6639e+17
    3.52		9.7194e+17
    3.53		9.7753e+17
    3.54		9.8317e+17
    3.55		9.8885e+17
    3.56		9.9457e+17
    3.57		1.0003e+18
    3.58		1.0062e+18
    3.59		1.0120e+18
    3.60		1.0179e+18
    3.61		1.0239e+18
    3.62		1.0299e+18
    3.63		1.0360e+18
    3.64		1.0421e+18
    3.65		1.0482e+18
    3.66		1.0544e+18
    3.67		1.0607e+18
    3.68		1.0670e+18
    3.69		1.0733e+18
    3.70		1.0797e+18
    3.71		1.0862e+18
    3.72		1.0927e+18
    3.73		1.0992e+18
    3.74		1.1059e+18
    3.75		1.1125e+18
    3.76		1.1192e+18
    3.77		1.1260e+18
    3.78		1.1328e+18
    3.79		1.1397e+18
    3.80		1.1466e+18
    3.81		1.1535e+18
    3.82		1.1605e+18
    3.83		1.1676e+18
    3.84		1.1747e+18
    3.85		1.1819e+18
    3.86		1.1891e+18
    3.87		1.1964e+18
    3.88		1.2037e+18
    3.89		1.2111e+18
    3.90		1.2185e+18
    3.91		1.2259e+18
    3.92		1.2335e+18
    3.93		1.2410e+18
    3.94		1.2486e+18
    3.95		1.2563e+18
    3.96		1.2640e+18
    3.97		1.2718e+18
    3.98		1.2796e+18
    3.99		1.2874e+18
    4.00		1.2953e+18
    4.01		1.3032e+18
    4.02		1.3112e+18
    4.03		1.3192e+18
    4.04		1.3273e+18
    4.05		1.3354e+18
    4.06		1.3435e+18
    4.07		1.3517e+18
    4.08		1.3600e+18
    4.09		1.3682e+18
    4.10		1.3765e+18
    4.11		1.3849e+18
    4.12		1.3933e+18
    4.13		1.4017e+18
    4.14		1.4102e+18
    4.15		1.4186e+18
    4.16		1.4272e+18
    4.17		1.4357e+18
    4.18		1.4443e+18
    4.19		1.4529e+18
    4.20		1.4616e+18
    4.21		1.4703e+18
    4.22		1.4790e+18
    4.23		1.4877e+18
    4.24		1.4965e+18
    4.25		1.5053e+18
    4.26		1.5141e+18
    4.27		1.5230e+18
    4.28		1.5319e+18
    4.29		1.5408e+18
    4.30		1.5497e+18
    4.31		1.5586e+18
    4.32		1.5676e+18
    4.33		1.5766e+18
    4.34		1.5856e+18
    4.35		1.5946e+18
    4.36		1.6036e+18
    4.37		1.6126e+18
    4.38		1.6217e+18
    4.39		1.6308e+18
    4.40		1.6399e+18
    4.41		1.6490e+18
    4.42		1.6581e+18
    4.43		1.6672e+18
    4.44		1.6763e+18
    4.45		1.6855e+18
    4.46		1.6946e+18
    4.47		1.7037e+18
    4.48		1.7129e+18
    4.49		1.7221e+18
    4.50		1.7312e+18
    4.51		1.7404e+18
    4.52		1.7495e+18
    4.53		1.7587e+18
    4.54		1.7679e+18
    4.55		1.7770e+18
    4.56		1.7862e+18
    4.57		1.7953e+18
    4.58		1.8045e+18
    4.59		1.8136e+18
    4.60		1.8227e+18
    4.61		1.8318e+18
    4.62		1.8410e+18
    4.63		1.8501e+18
    4.64		1.8591e+18
    4.65		1.8682e+18
    4.66		1.8773e+18
    4.67		1.8863e+18
    4.68		1.8953e+18
    4.69		1.9043e+18
    4.70		1.9133e+18
    4.71		1.9223e+18
    4.72		1.9313e+18
    4.73		1.9402e+18
    4.74		1.9491e+18
    4.75		1.9580e+18
    4.76		1.9668e+18
    4.77		1.9757e+18
    4.78		1.9845e+18
    4.79		1.9933e+18
    4.80		2.0020e+18
    4.81		2.0108e+18
    4.82		2.0195e+18
    4.83		2.0281e+18
    4.84		2.0368e+18
    4.85		2.0454e+18
    4.86		2.0539e+18
    4.87		2.0624e+18
    4.88		2.0709e+18
    4.89		2.0793e+18
    4.90		2.0877e+18
    4.91		2.0961e+18
    4.92		2.1044e+18
    4.93		2.1126e+18
    4.94		2.1208e+18
    4.95		2.1289e+18
    4.96		2.1370e+18
    4.97		2.1451e+18
    4.98		2.1530e+18
    4.99		2.1610e+18
    5.00		2.1689e+18
    5.01		2.1767e+18
    5.02		2.1845e+18
    5.03		2.1922e+18
    5.04		2.1998e+18
    5.05		2.2074e+18
    5.06		2.2150e+18
    5.07		2.2225e+18
    5.08		2.2299e+18
    5.09		2.2373e+18
    5.10		2.2446e+18
    5.11		2.2518e+18
    5.12		2.2590e+18
    5.13		2.2662e+18
    5.14		2.2733e+18
    5.15		2.2803e+18
    5.16		2.2873e+18
    5.17		2.2942e+18
    5.18		2.3010e+18
    5.19		2.3078e+18
    5.20		2.3145e+18
    5.21		2.3212e+18
    5.22		2.3278e+18
    5.23		2.3344e+18
    5.24		2.3409e+18
    5.25		2.3473e+18
    5.26		2.3537e+18
    5.27		2.3600e+18
    5.28		2.3663e+18
    5.29		2.3725e+18
    5.30		2.3787e+18
    5.31		2.3848e+18
    5.32		2.3909e+18
    5.33		2.3969e+18
    5.34		2.4028e+18
    5.35		2.4087e+18
    5.36		2.4145e+18
    5.37		2.4203e+18
    5.38		2.4261e+18
    5.39		2.4317e+18
    5.40		2.4374e+18
    5.41		2.4430e+18
    5.42		2.4485e+18
    5.43		2.4540e+18
    5.44		2.4594e+18
    5.45		2.4648e+18
    5.46		2.4701e+18
    5.47		2.4754e+18
    5.48		2.4806e+18
    5.49		2.4858e+18
    5.50		2.4909e+18
    5.51		2.4960e+18
    5.52		2.5010e+18
    5.53		2.5059e+18
    5.54		2.5108e+18
    5.55		2.5157e+18
    5.56		2.5204e+18
    5.57		2.5252e+18
    5.58		2.5299e+18
    5.59		2.5345e+18
    5.60		2.5391e+18
    5.61		2.5436e+18
    5.62		2.5480e+18
    5.63		2.5524e+18
    5.64		2.5568e+18
    5.65		2.5611e+18
    5.66		2.5654e+18
    5.67		2.5696e+18
    5.68		2.5737e+18
    5.69		2.5778e+18
    5.70		2.5819e+18
    5.71		2.5859e+18
    5.72		2.5898e+18
    5.73		2.5937e+18
    5.74		2.5976e+18
    5.75		2.6014e+18
    5.76		2.6051e+18
    5.77		2.6089e+18
    5.78		2.6125e+18
    5.79		2.6162e+18
    5.80		2.6198e+18
    5.81		2.6233e+18
    5.82		2.6268e+18
    5.83		2.6303e+18
    5.84		2.6337e+18
    5.85		2.6370e+18
    5.86		2.6403e+18
    5.87		2.6436e+18
    5.88		2.6468e+18
    5.89		2.6500e+18
    5.90		2.6531e+18
    5.91		2.6562e+18
    5.92		2.6593e+18
    5.93		2.6622e+18
    5.94		2.6652e+18
    5.95		2.6681e+18
    5.96		2.6709e+18
    5.97		2.6737e+18
    5.98		2.6764e+18
    5.99		2.6791e+18
    6.00		2.6818e+18
    6.01		2.6844e+18
    6.02		2.6869e+18
    6.03		2.6894e+18
    6.04		2.6919e+18
    6.05		2.6943e+18
    6.06		2.6967e+18
    6.07		2.6990e+18
    6.08		2.7012e+18
    6.09		2.7034e+18
    6.10		2.7056e+18
    6.11		2.7077e+18
    6.12		2.7098e+18
    6.13		2.7118e+18
    6.14		2.7138e+18
    6.15		2.7158e+18
    6.16		2.7177e+18
    6.17		2.7195e+18
    6.18		2.7213e+18
    6.19		2.7231e+18
    6.20		2.7248e+18
    6.21		2.7265e+18
    6.22		2.7281e+18
    6.23		2.7297e+18
    6.24		2.7313e+18
    6.25		2.7328e+18
    6.26		2.7343e+18
    6.27		2.7358e+18
    6.28		2.7372e+18
    6.29		2.7385e+18
    6.30		2.7399e+18
    6.31		2.7412e+18
    6.32		2.7425e+18
    6.33		2.7437e+18
    6.34		2.7449e+18
    6.35		2.7461e+18
    6.36		2.7472e+18
    6.37		2.7484e+18
    6.38		2.7495e+18
    6.39		2.7505e+18
    6.40		2.7516e+18
    6.41		2.7526e+18
    6.42		2.7536e+18
    6.43		2.7545e+18
    6.44		2.7555e+18
    6.45		2.7564e+18
    6.46		2.7573e+18
    6.47		2.7582e+18
    6.48		2.7591e+18
    6.49		2.7600e+18
    6.50		2.7608e+18
    6.51		2.7616e+18
    6.52		2.7625e+18
    6.53		2.7633e+18
    6.54		2.7641e+18
    6.55		2.7649e+18
    6.56		2.7656e+18
    6.57		2.7664e+18
    6.58		2.7672e+18
    6.59		2.7680e+18
    6.60		2.7688e+18
    6.61		2.7695e+18
    6.62		2.7703e+18
    6.63		2.7711e+18
    6.64		2.7719e+18
    6.65		2.7727e+18
    6.66		2.7735e+18
    6.67		2.7743e+18
    6.68		2.7751e+18
    6.69		2.7759e+18
    6.70		2.7767e+18
    6.71		2.7776e+18
    6.72		2.7785e+18
    6.73		2.7794e+18
    6.74		2.7803e+18
    6.75		2.7812e+18
    6.76		2.7822e+18
    6.77		2.7831e+18
    6.78		2.7841e+18
    6.79		2.7851e+18
    6.80		2.7862e+18
    6.81		2.7873e+18
    6.82		2.7884e+18
    6.83		2.7895e+18
    6.84		2.7907e+18
    6.85		2.7919e+18
    6.86		2.7932e+18
    6.87		2.7945e+18
    6.88		2.7958e+18
    6.89		2.7972e+18
    6.90		2.7986e+18
    6.91		2.8001e+18
    6.92		2.8016e+18
    6.93		2.8031e+18
    6.94		2.8047e+18
    6.95		2.8064e+18
    6.96		2.8081e+18
    6.97		2.8099e+18
    6.98		2.8117e+18
    6.99		2.8136e+18
    7.00		2.8155e+18
    7.01		2.8175e+18
    7.02		2.8196e+18
    7.03		2.8217e+18
    7.04		2.8239e+18
    7.05		2.8262e+18
    7.06		2.8286e+18
    7.07		2.8310e+18
    7.08		2.8335e+18
    7.09		2.8361e+18
    7.10		2.8388e+18
    7.11		2.8416e+18
    7.12		2.8445e+18
    7.13		2.8475e+18
    7.14		2.8506e+18
    7.15		2.8537e+18
    7.16		2.8570e+18
    7.17		2.8604e+18
    7.18		2.8639e+18
    7.19		2.8675e+18
    7.20		2.8712e+18
    7.21		2.8751e+18
    7.22		2.8790e+18
    7.23		2.8831e+18
    7.24		2.8873e+18
    7.25		2.8916e+18
    7.26		2.8960e+18
    7.27		2.9006e+18
    7.28		2.9053e+18
    7.29		2.9102e+18
    7.30		2.9151e+18
    7.31		2.9202e+18
    7.32		2.9255e+18
    7.33		2.9308e+18
    7.34		2.9363e+18
    7.35		2.9420e+18
    7.36		2.9478e+18
    7.37		2.9537e+18
    7.38		2.9597e+18
    7.39		2.9659e+18
    7.40		2.9723e+18
    7.41		2.9787e+18
    7.42		2.9853e+18
    7.43		2.9921e+18
    7.44		2.9990e+18
    7.45		3.0060e+18
    7.46		3.0132e+18
    7.47		3.0205e+18
    7.48		3.0279e+18
    7.49		3.0355e+18
    7.50		3.0433e+18
    7.51		3.0511e+18
    7.52		3.0592e+18
    7.53		3.0673e+18
    7.54		3.0756e+18
    7.55		3.0840e+18
    7.56		3.0926e+18
    7.57		3.1013e+18
    7.58		3.1102e+18
    7.59		3.1192e+18
    7.60		3.1283e+18
    7.61		3.1376e+18
    7.62		3.1470e+18
    7.63		3.1565e+18
    7.64		3.1662e+18
    7.65		3.1760e+18
    7.66		3.1860e+18
    7.67		3.1961e+18
    7.68		3.2064e+18
    7.69		3.2168e+18
    7.70		3.2273e+18
    7.71		3.2380e+18
    7.72		3.2489e+18
    7.73		3.2599e+18
    7.74		3.2710e+18
    7.75		3.2823e+18
    7.76		3.2937e+18
    7.77		3.3052e+18
    7.78		3.3170e+18
    7.79		3.3288e+18
    7.80		3.3408e+18
    7.81		3.3530e+18
    7.82		3.3653e+18
    7.83		3.3777e+18
    7.84		3.3903e+18
    7.85		3.4031e+18
    7.86		3.4160e+18
    7.87		3.4291e+18
    7.88		3.4423e+18
    7.89		3.4557e+18
    7.90		3.4692e+18
    7.91		3.4829e+18
    7.92		3.4968e+18
    7.93		3.5108e+18
    7.94		3.5250e+18
    7.95		3.5394e+18
    7.96		3.5539e+18
    7.97		3.5685e+18
    7.98		3.5834e+18
    7.99		3.5984e+18
    8.00		3.6136e+18
    8.01		3.6289e+18
    8.02		3.6444e+18
    8.03		3.6601e+18
    8.04		3.6759e+18
    8.05		3.6919e+18
    8.06		3.7081e+18
    8.07		3.7245e+18
    8.08		3.7410e+18
    8.09		3.7577e+18
    8.10		3.7745e+18
    8.11		3.7915e+18
    8.12		3.8087e+18
    8.13		3.8261e+18
    8.14		3.8436e+18
    8.15		3.8613e+18
    8.16		3.8792e+18
    8.17		3.8972e+18
    8.18		3.9154e+18
    8.19		3.9338e+18
    8.20		3.9524e+18
    8.21		3.9711e+18
    8.22		3.9900e+18
    8.23		4.0090e+18
    8.24		4.0283e+18
    8.25		4.0477e+18
    8.26		4.0673e+18
    8.27		4.0870e+18
    8.28		4.1069e+18
    8.29		4.1270e+18
    8.30		4.1473e+18
    8.31		4.1677e+18
    8.32		4.1884e+18
    8.33		4.2091e+18
    8.34		4.2301e+18
    8.35		4.2512e+18
    8.36		4.2725e+18
    8.37		4.2940e+18
    8.38		4.3157e+18
    8.39		4.3375e+18
    8.40		4.3595e+18
    8.41		4.3817e+18
    8.42		4.4040e+18
    8.43		4.4265e+18
    8.44		4.4492e+18
    8.45		4.4720e+18
    8.46		4.4950e+18
    8.47		4.5182e+18
    8.48		4.5416e+18
    8.49		4.5651e+18
    8.50		4.5888e+18
    8.51		4.6126e+18
    8.52		4.6366e+18
    8.53		4.6608e+18
    8.54		4.6851e+18
    8.55		4.7096e+18
    8.56		4.7343e+18
    8.57		4.7591e+18
    8.58		4.7841e+18
    8.59		4.8092e+18
    8.60		4.8345e+18
    8.61		4.8600e+18
    8.62		4.8856e+18
    8.63		4.9114e+18
    8.64		4.9373e+18
    8.65		4.9634e+18
    8.66		4.9896e+18
    8.67		5.0160e+18
    8.68		5.0425e+18
    8.69		5.0691e+18
    8.70		5.0960e+18
    8.71		5.1229e+18
    8.72		5.1500e+18
    8.73		5.1773e+18
    8.74		5.2046e+18
    8.75		5.2321e+18
    8.76		5.2598e+18
    8.77		5.2876e+18
    8.78		5.3155e+18
    8.79		5.3435e+18
    8.80		5.3717e+18
    8.81		5.4000e+18
    8.82		5.4284e+18
    8.83		5.4570e+18
    8.84		5.4856e+18
    8.85		5.5144e+18
    8.86		5.5433e+18
    8.87		5.5723e+18
    8.88		5.6014e+18
    8.89		5.6306e+18
    8.90		5.6600e+18
    8.91		5.6894e+18
    8.92		5.7189e+18
    8.93		5.7486e+18
    8.94		5.7783e+18
    8.95		5.8081e+18
    8.96		5.8381e+18
    8.97		5.8681e+18
    8.98		5.8982e+18
    8.99		5.9284e+18
    9.00		5.9587e+18
    9.01		5.9891e+18
    9.02		6.0196e+18
    9.03		6.0501e+18
    9.04		6.0807e+18
    9.05		6.1114e+18
    9.06		6.1422e+18
    9.07		6.1730e+18
    9.08		6.2040e+18
    9.09		6.2350e+18
    9.10		6.2660e+18
    9.11		6.2971e+18
    9.12		6.3283e+18
    9.13		6.3596e+18
    9.14		6.3909e+18
    9.15		6.4222e+18
    9.16		6.4537e+18
    9.17		6.4852e+18
    9.18		6.5167e+18
    9.19		6.5483e+18
    9.20		6.5800e+18
    9.21		6.6117e+18
    9.22		6.6434e+18
    9.23		6.6752e+18
    9.24		6.7071e+18
    9.25		6.7390e+18
    9.26		6.7710e+18
    9.27		6.8030e+18
    9.28		6.8350e+18
    9.29		6.8671e+18
    9.30		6.8992e+18
    9.31		6.9314e+18
    9.32		6.9636e+18
    9.33		6.9959e+18
    9.34		7.0282e+18
    9.35		7.0605e+18
    9.36		7.0929e+18
    9.37		7.1253e+18
    9.38		7.1578e+18
    9.39		7.1903e+18
    9.40		7.2228e+18
    9.41		7.2554e+18
    9.42		7.2879e+18
    9.43		7.3206e+18
    9.44		7.3532e+18
    9.45		7.3859e+18
    9.46		7.4185e+18
    9.47		7.4512e+18
    9.48		7.4840e+18
    9.49		7.5167e+18
