dt: 0.01
Time[s]     Moment_Rate [Nm]
    0.00		0.0000e+00
    0.01		3.9426e+12
    0.02		1.9709e+13
    0.03		5.5169e+13
    0.04		1.1817e+14
    0.05		2.1654e+14
    0.06		3.5807e+14
    0.07		5.5049e+14
    0.08		8.0151e+14
    0.09		1.1188e+15
    0.10		1.5098e+15
    0.11		1.9822e+15
    0.12		2.5433e+15
    0.13		3.2004e+15
    0.14		3.9608e+15
    0.15		4.8317e+15
    0.16		5.8200e+15
    0.17		6.9326e+15
    0.18		8.1765e+15
    0.19		9.5581e+15
    0.20		1.1084e+16
    0.21		1.2761e+16
    0.22		1.4594e+16
    0.23		1.6591e+16
    0.24		1.8756e+16
    0.25		2.1097e+16
    0.26		2.3617e+16
    0.27		2.6323e+16
    0.28		2.9220e+16
    0.29		3.2313e+16
    0.30		3.5607e+16
    0.31		3.9106e+16
    0.32		4.2814e+16
    0.33		4.6737e+16
    0.34		5.0878e+16
    0.35		5.5240e+16
    0.36		5.9828e+16
    0.37		6.4645e+16
    0.38		6.9694e+16
    0.39		7.4977e+16
    0.40		8.0498e+16
    0.41		8.6259e+16
    0.42		9.2262e+16
    0.43		9.8509e+16
    0.44		1.0500e+17
    0.45		1.1174e+17
    0.46		1.1873e+17
    0.47		1.2597e+17
    0.48		1.3346e+17
    0.49		1.4120e+17
    0.50		1.4919e+17
    0.51		1.5743e+17
    0.52		1.6592e+17
    0.53		1.7466e+17
    0.54		1.8365e+17
    0.55		1.9289e+17
    0.56		2.0238e+17
    0.57		2.1211e+17
    0.58		2.2209e+17
    0.59		2.3231e+17
    0.60		2.4277e+17
    0.61		2.5346e+17
    0.62		2.6439e+17
    0.63		2.7556e+17
    0.64		2.8695e+17
    0.65		2.9857e+17
    0.66		3.1041e+17
    0.67		3.2246e+17
    0.68		3.3473e+17
    0.69		3.4721e+17
    0.70		3.5990e+17
    0.71		3.7279e+17
    0.72		3.8587e+17
    0.73		3.9915e+17
    0.74		4.1260e+17
    0.75		4.2624e+17
    0.76		4.4006e+17
    0.77		4.5404e+17
    0.78		4.6819e+17
    0.79		4.8249e+17
    0.80		4.9695e+17
    0.81		5.1154e+17
    0.82		5.2628e+17
    0.83		5.4115e+17
    0.84		5.5614e+17
    0.85		5.7125e+17
    0.86		5.8647e+17
    0.87		6.0179e+17
    0.88		6.1721e+17
    0.89		6.3272e+17
    0.90		6.4831e+17
    0.91		6.6397e+17
    0.92		6.7970e+17
    0.93		6.9548e+17
    0.94		7.1132e+17
    0.95		7.2720e+17
    0.96		7.4312e+17
    0.97		7.5907e+17
    0.98		7.7503e+17
    0.99		7.9101e+17
    1.00		8.0699e+17
    1.01		8.2296e+17
    1.02		8.3893e+17
    1.03		8.5487e+17
    1.04		8.7079e+17
    1.05		8.8667e+17
    1.06		9.0251e+17
    1.07		9.1829e+17
    1.08		9.3402e+17
    1.09		9.4969e+17
    1.10		9.6528e+17
    1.11		9.8078e+17
    1.12		9.9620e+17
    1.13		1.0115e+18
    1.14		1.0267e+18
    1.15		1.0419e+18
    1.16		1.0568e+18
    1.17		1.0717e+18
    1.18		1.0864e+18
    1.19		1.1010e+18
    1.20		1.1155e+18
    1.21		1.1298e+18
    1.22		1.1439e+18
    1.23		1.1579e+18
    1.24		1.1717e+18
    1.25		1.1854e+18
    1.26		1.1988e+18
    1.27		1.2121e+18
    1.28		1.2252e+18
    1.29		1.2381e+18
    1.30		1.2508e+18
    1.31		1.2633e+18
    1.32		1.2755e+18
    1.33		1.2876e+18
    1.34		1.2994e+18
    1.35		1.3110e+18
    1.36		1.3224e+18
    1.37		1.3336e+18
    1.38		1.3445e+18
    1.39		1.3552e+18
    1.40		1.3657e+18
    1.41		1.3759e+18
    1.42		1.3859e+18
    1.43		1.3956e+18
    1.44		1.4051e+18
    1.45		1.4143e+18
    1.46		1.4233e+18
    1.47		1.4321e+18
    1.48		1.4406e+18
    1.49		1.4488e+18
    1.50		1.4568e+18
    1.51		1.4645e+18
    1.52		1.4720e+18
    1.53		1.4793e+18
    1.54		1.4862e+18
    1.55		1.4930e+18
    1.56		1.4995e+18
    1.57		1.5057e+18
    1.58		1.5117e+18
    1.59		1.5175e+18
    1.60		1.5230e+18
    1.61		1.5283e+18
    1.62		1.5333e+18
    1.63		1.5382e+18
    1.64		1.5428e+18
    1.65		1.5471e+18
    1.66		1.5513e+18
    1.67		1.5552e+18
    1.68		1.5589e+18
    1.69		1.5624e+18
    1.70		1.5657e+18
    1.71		1.5688e+18
    1.72		1.5717e+18
    1.73		1.5744e+18
    1.74		1.5769e+18
    1.75		1.5792e+18
    1.76		1.5814e+18
    1.77		1.5834e+18
    1.78		1.5852e+18
    1.79		1.5869e+18
    1.80		1.5884e+18
    1.81		1.5898e+18
    1.82		1.5911e+18
    1.83		1.5922e+18
    1.84		1.5932e+18
    1.85		1.5940e+18
    1.86		1.5948e+18
    1.87		1.5954e+18
    1.88		1.5960e+18
    1.89		1.5965e+18
    1.90		1.5969e+18
    1.91		1.5972e+18
    1.92		1.5974e+18
    1.93		1.5976e+18
    1.94		1.5978e+18
    1.95		1.5979e+18
    1.96		1.5979e+18
    1.97		1.5980e+18
    1.98		1.5980e+18
    1.99		1.5980e+18
    2.00		1.5980e+18
    2.01		1.5980e+18
    2.02		1.5980e+18
    2.03		1.5981e+18
    2.04		1.5982e+18
    2.05		1.5983e+18
    2.06		1.5985e+18
    2.07		1.5988e+18
    2.08		1.5992e+18
    2.09		1.5996e+18
    2.10		1.6002e+18
    2.11		1.6009e+18
    2.12		1.6017e+18
    2.13		1.6027e+18
    2.14		1.6038e+18
    2.15		1.6051e+18
    2.16		1.6065e+18
    2.17		1.6081e+18
    2.18		1.6099e+18
    2.19		1.6120e+18
    2.20		1.6142e+18
    2.21		1.6166e+18
    2.22		1.6193e+18
    2.23		1.6223e+18
    2.24		1.6255e+18
    2.25		1.6290e+18
    2.26		1.6328e+18
    2.27		1.6369e+18
    2.28		1.6413e+18
    2.29		1.6460e+18
    2.30		1.6511e+18
    2.31		1.6566e+18
    2.32		1.6624e+18
    2.33		1.6686e+18
    2.34		1.6752e+18
    2.35		1.6822e+18
    2.36		1.6896e+18
    2.37		1.6975e+18
    2.38		1.7057e+18
    2.39		1.7145e+18
    2.40		1.7236e+18
    2.41		1.7333e+18
    2.42		1.7433e+18
    2.43		1.7539e+18
    2.44		1.7650e+18
    2.45		1.7765e+18
    2.46		1.7885e+18
    2.47		1.8011e+18
    2.48		1.8141e+18
    2.49		1.8276e+18
    2.50		1.8417e+18
    2.51		1.8562e+18
    2.52		1.8713e+18
    2.53		1.8869e+18
    2.54		1.9030e+18
    2.55		1.9197e+18
    2.56		1.9368e+18
    2.57		1.9545e+18
    2.58		1.9727e+18
    2.59		1.9915e+18
    2.60		2.0107e+18
    2.61		2.0305e+18
    2.62		2.0508e+18
    2.63		2.0716e+18
    2.64		2.0929e+18
    2.65		2.1148e+18
    2.66		2.1371e+18
    2.67		2.1599e+18
    2.68		2.1833e+18
    2.69		2.2071e+18
    2.70		2.2314e+18
    2.71		2.2561e+18
    2.72		2.2814e+18
    2.73		2.3070e+18
    2.74		2.3332e+18
    2.75		2.3598e+18
    2.76		2.3868e+18
    2.77		2.4142e+18
    2.78		2.4421e+18
    2.79		2.4703e+18
    2.80		2.4990e+18
    2.81		2.5280e+18
    2.82		2.5574e+18
    2.83		2.5872e+18
    2.84		2.6173e+18
    2.85		2.6478e+18
    2.86		2.6786e+18
    2.87		2.7099e+18
    2.88		2.7414e+18
    2.89		2.7733e+18
    2.90		2.8056e+18
    2.91		2.8381e+18
    2.92		2.8711e+18
    2.93		2.9043e+18
    2.94		2.9379e+18
    2.95		2.9718e+18
    2.96		3.0061e+18
    2.97		3.0406e+18
    2.98		3.0754e+18
    2.99		3.1106e+18
    3.00		3.1460e+18
    3.01		3.1817e+18
    3.02		3.2177e+18
    3.03		3.2540e+18
    3.04		3.2905e+18
    3.05		3.3273e+18
    3.06		3.3644e+18
    3.07		3.4017e+18
    3.08		3.4393e+18
    3.09		3.4771e+18
    3.10		3.5152e+18
    3.11		3.5535e+18
    3.12		3.5921e+18
    3.13		3.6309e+18
    3.14		3.6699e+18
    3.15		3.7092e+18
    3.16		3.7487e+18
    3.17		3.7884e+18
    3.18		3.8284e+18
    3.19		3.8685e+18
    3.20		3.9089e+18
    3.21		3.9494e+18
    3.22		3.9901e+18
    3.23		4.0310e+18
    3.24		4.0721e+18
    3.25		4.1134e+18
    3.26		4.1548e+18
    3.27		4.1964e+18
    3.28		4.2382e+18
    3.29		4.2801e+18
    3.30		4.3222e+18
    3.31		4.3644e+18
    3.32		4.4068e+18
    3.33		4.4493e+18
    3.34		4.4919e+18
    3.35		4.5347e+18
    3.36		4.5776e+18
    3.37		4.6206e+18
    3.38		4.6637e+18
    3.39		4.7069e+18
    3.40		4.7502e+18
    3.41		4.7936e+18
    3.42		4.8371e+18
    3.43		4.8807e+18
    3.44		4.9243e+18
    3.45		4.9680e+18
    3.46		5.0118e+18
    3.47		5.0556e+18
    3.48		5.0995e+18
    3.49		5.1434e+18
    3.50		5.1874e+18
    3.51		5.2313e+18
    3.52		5.2753e+18
    3.53		5.3193e+18
    3.54		5.3633e+18
    3.55		5.4073e+18
    3.56		5.4513e+18
    3.57		5.4953e+18
    3.58		5.5393e+18
    3.59		5.5832e+18
    3.60		5.6271e+18
    3.61		5.6710e+18
    3.62		5.7148e+18
    3.63		5.7585e+18
    3.64		5.8022e+18
    3.65		5.8458e+18
    3.66		5.8894e+18
    3.67		5.9329e+18
    3.68		5.9762e+18
    3.69		6.0195e+18
    3.70		6.0627e+18
    3.71		6.1058e+18
    3.72		6.1488e+18
    3.73		6.1916e+18
    3.74		6.2343e+18
    3.75		6.2769e+18
    3.76		6.3194e+18
    3.77		6.3617e+18
    3.78		6.4039e+18
    3.79		6.4459e+18
    3.80		6.4878e+18
    3.81		6.5295e+18
    3.82		6.5711e+18
    3.83		6.6124e+18
    3.84		6.6537e+18
    3.85		6.6947e+18
    3.86		6.7355e+18
    3.87		6.7762e+18
    3.88		6.8167e+18
    3.89		6.8570e+18
    3.90		6.8971e+18
    3.91		6.9369e+18
    3.92		6.9766e+18
    3.93		7.0161e+18
    3.94		7.0554e+18
    3.95		7.0945e+18
    3.96		7.1334e+18
    3.97		7.1720e+18
    3.98		7.2105e+18
    3.99		7.2487e+18
    4.00		7.2867e+18
    4.01		7.3245e+18
    4.02		7.3620e+18
    4.03		7.3993e+18
    4.04		7.4362e+18
    4.05		7.4728e+18
    4.06		7.5090e+18
    4.07		7.5449e+18
    4.08		7.5803e+18
    4.09		7.6153e+18
    4.10		7.6499e+18
    4.11		7.6840e+18
    4.12		7.7175e+18
    4.13		7.7506e+18
    4.14		7.7831e+18
    4.15		7.8150e+18
    4.16		7.8463e+18
    4.17		7.8770e+18
    4.18		7.9071e+18
    4.19		7.9365e+18
    4.20		7.9653e+18
    4.21		7.9933e+18
    4.22		8.0207e+18
    4.23		8.0473e+18
    4.24		8.0731e+18
    4.25		8.0981e+18
    4.26		8.1223e+18
    4.27		8.1456e+18
    4.28		8.1681e+18
    4.29		8.1896e+18
    4.30		8.2103e+18
    4.31		8.2300e+18
    4.32		8.2487e+18
    4.33		8.2664e+18
    4.34		8.2832e+18
    4.35		8.2989e+18
    4.36		8.3136e+18
    4.37		8.3272e+18
    4.38		8.3398e+18
    4.39		8.3513e+18
    4.40		8.3617e+18
    4.41		8.3711e+18
    4.42		8.3793e+18
    4.43		8.3864e+18
    4.44		8.3924e+18
    4.45		8.3972e+18
    4.46		8.4010e+18
    4.47		8.4037e+18
    4.48		8.4052e+18
    4.49		8.4056e+18
    4.50		8.4050e+18
    4.51		8.4032e+18
    4.52		8.4004e+18
    4.53		8.3965e+18
    4.54		8.3915e+18
    4.55		8.3855e+18
    4.56		8.3784e+18
    4.57		8.3704e+18
    4.58		8.3613e+18
    4.59		8.3513e+18
    4.60		8.3403e+18
    4.61		8.3283e+18
    4.62		8.3155e+18
    4.63		8.3017e+18
    4.64		8.2870e+18
    4.65		8.2715e+18
    4.66		8.2551e+18
    4.67		8.2379e+18
    4.68		8.2199e+18
    4.69		8.2012e+18
    4.70		8.1817e+18
    4.71		8.1615e+18
    4.72		8.1407e+18
    4.73		8.1191e+18
    4.74		8.0970e+18
    4.75		8.0742e+18
    4.76		8.0509e+18
    4.77		8.0271e+18
    4.78		8.0027e+18
    4.79		7.9779e+18
    4.80		7.9526e+18
    4.81		7.9269e+18
    4.82		7.9009e+18
    4.83		7.8745e+18
    4.84		7.8478e+18
    4.85		7.8207e+18
    4.86		7.7934e+18
    4.87		7.7657e+18
    4.88		7.7378e+18
    4.89		7.7096e+18
    4.90		7.6811e+18
    4.91		7.6525e+18
    4.92		7.6236e+18
    4.93		7.5945e+18
    4.94		7.5653e+18
    4.95		7.5359e+18
    4.96		7.5064e+18
    4.97		7.4768e+18
    4.98		7.4471e+18
    4.99		7.4173e+18
    5.00		7.3875e+18
    5.01		7.3577e+18
    5.02		7.3278e+18
    5.03		7.2980e+18
    5.04		7.2682e+18
    5.05		7.2384e+18
    5.06		7.2087e+18
    5.07		7.1790e+18
    5.08		7.1494e+18
    5.09		7.1199e+18
    5.10		7.0904e+18
    5.11		7.0611e+18
    5.12		7.0319e+18
    5.13		7.0028e+18
    5.14		6.9739e+18
    5.15		6.9451e+18
    5.16		6.9165e+18
    5.17		6.8881e+18
    5.18		6.8598e+18
    5.19		6.8318e+18
    5.20		6.8040e+18
    5.21		6.7765e+18
    5.22		6.7491e+18
    5.23		6.7220e+18
    5.24		6.6952e+18
    5.25		6.6687e+18
    5.26		6.6424e+18
    5.27		6.6164e+18
    5.28		6.5906e+18
    5.29		6.5651e+18
    5.30		6.5400e+18
    5.31		6.5151e+18
    5.32		6.4904e+18
    5.33		6.4661e+18
    5.34		6.4421e+18
    5.35		6.4184e+18
    5.36		6.3950e+18
    5.37		6.3718e+18
    5.38		6.3490e+18
    5.39		6.3265e+18
    5.40		6.3043e+18
    5.41		6.2824e+18
    5.42		6.2608e+18
    5.43		6.2395e+18
    5.44		6.2185e+18
    5.45		6.1979e+18
    5.46		6.1775e+18
    5.47		6.1574e+18
    5.48		6.1377e+18
    5.49		6.1182e+18
    5.50		6.0991e+18
    5.51		6.0802e+18
    5.52		6.0616e+18
    5.53		6.0434e+18
    5.54		6.0254e+18
    5.55		6.0077e+18
    5.56		5.9903e+18
    5.57		5.9732e+18
    5.58		5.9563e+18
    5.59		5.9397e+18
    5.60		5.9234e+18
    5.61		5.9074e+18
    5.62		5.8916e+18
    5.63		5.8760e+18
    5.64		5.8607e+18
    5.65		5.8457e+18
    5.66		5.8309e+18
    5.67		5.8163e+18
    5.68		5.8019e+18
    5.69		5.7878e+18
    5.70		5.7738e+18
    5.71		5.7601e+18
    5.72		5.7466e+18
    5.73		5.7333e+18
    5.74		5.7201e+18
    5.75		5.7072e+18
    5.76		5.6945e+18
    5.77		5.6819e+18
    5.78		5.6695e+18
    5.79		5.6573e+18
    5.80		5.6452e+18
    5.81		5.6333e+18
    5.82		5.6216e+18
    5.83		5.6100e+18
    5.84		5.5985e+18
    5.85		5.5872e+18
    5.86		5.5760e+18
    5.87		5.5649e+18
    5.88		5.5539e+18
    5.89		5.5430e+18
    5.90		5.5322e+18
    5.91		5.5215e+18
    5.92		5.5109e+18
    5.93		5.5004e+18
    5.94		5.4899e+18
    5.95		5.4795e+18
    5.96		5.4691e+18
    5.97		5.4588e+18
    5.98		5.4486e+18
    5.99		5.4383e+18
    6.00		5.4281e+18
    6.01		5.4179e+18
    6.02		5.4077e+18
    6.03		5.3976e+18
    6.04		5.3874e+18
    6.05		5.3773e+18
    6.06		5.3672e+18
    6.07		5.3572e+18
    6.08		5.3472e+18
    6.09		5.3372e+18
    6.10		5.3273e+18
    6.11		5.3175e+18
    6.12		5.3077e+18
    6.13		5.2979e+18
    6.14		5.2882e+18
    6.15		5.2786e+18
    6.16		5.2691e+18
    6.17		5.2596e+18
    6.18		5.2502e+18
    6.19		5.2409e+18
    6.20		5.2317e+18
    6.21		5.2225e+18
    6.22		5.2135e+18
    6.23		5.2046e+18
    6.24		5.1957e+18
    6.25		5.1871e+18
    6.26		5.1785e+18
    6.27		5.1701e+18
    6.28		5.1619e+18
    6.29		5.1538e+18
    6.30		5.1459e+18
    6.31		5.1381e+18
    6.32		5.1306e+18
    6.33		5.1232e+18
    6.34		5.1160e+18
    6.35		5.1091e+18
    6.36		5.1024e+18
    6.37		5.0958e+18
    6.38		5.0896e+18
    6.39		5.0835e+18
    6.40		5.0777e+18
    6.41		5.0722e+18
    6.42		5.0669e+18
    6.43		5.0618e+18
    6.44		5.0570e+18
    6.45		5.0524e+18
    6.46		5.0480e+18
    6.47		5.0438e+18
    6.48		5.0399e+18
    6.49		5.0362e+18
    6.50		5.0327e+18
    6.51		5.0293e+18
    6.52		5.0261e+18
    6.53		5.0231e+18
    6.54		5.0202e+18
    6.55		5.0174e+18
    6.56		5.0147e+18
    6.57		5.0122e+18
    6.58		5.0097e+18
    6.59		5.0072e+18
    6.60		5.0049e+18
    6.61		5.0025e+18
    6.62		5.0002e+18
    6.63		4.9979e+18
    6.64		4.9956e+18
    6.65		4.9933e+18
    6.66		4.9910e+18
    6.67		4.9886e+18
    6.68		4.9862e+18
    6.69		4.9837e+18
    6.70		4.9811e+18
    6.71		4.9785e+18
    6.72		4.9757e+18
    6.73		4.9728e+18
    6.74		4.9698e+18
    6.75		4.9667e+18
    6.76		4.9633e+18
    6.77		4.9599e+18
    6.78		4.9562e+18
    6.79		4.9524e+18
    6.80		4.9484e+18
    6.81		4.9441e+18
    6.82		4.9396e+18
    6.83		4.9349e+18
    6.84		4.9300e+18
    6.85		4.9249e+18
    6.86		4.9195e+18
    6.87		4.9139e+18
    6.88		4.9081e+18
    6.89		4.9020e+18
    6.90		4.8957e+18
    6.91		4.8892e+18
    6.92		4.8824e+18
    6.93		4.8753e+18
    6.94		4.8680e+18
    6.95		4.8604e+18
    6.96		4.8525e+18
    6.97		4.8444e+18
    6.98		4.8360e+18
    6.99		4.8273e+18
    7.00		4.8183e+18
    7.01		4.8090e+18
    7.02		4.7994e+18
    7.03		4.7895e+18
    7.04		4.7794e+18
    7.05		4.7689e+18
    7.06		4.7581e+18
    7.07		4.7470e+18
    7.08		4.7356e+18
    7.09		4.7239e+18
    7.10		4.7119e+18
    7.11		4.6996e+18
    7.12		4.6870e+18
    7.13		4.6740e+18
    7.14		4.6607e+18
    7.15		4.6471e+18
    7.16		4.6332e+18
    7.17		4.6190e+18
    7.18		4.6044e+18
    7.19		4.5895e+18
    7.20		4.5742e+18
    7.21		4.5587e+18
    7.22		4.5428e+18
    7.23		4.5265e+18
    7.24		4.5100e+18
    7.25		4.4931e+18
    7.26		4.4759e+18
    7.27		4.4584e+18
    7.28		4.4406e+18
    7.29		4.4225e+18
    7.30		4.4042e+18
    7.31		4.3855e+18
    7.32		4.3665e+18
    7.33		4.3473e+18
    7.34		4.3278e+18
    7.35		4.3081e+18
    7.36		4.2881e+18
    7.37		4.2679e+18
    7.38		4.2474e+18
    7.39		4.2267e+18
    7.40		4.2058e+18
    7.41		4.1847e+18
    7.42		4.1634e+18
    7.43		4.1419e+18
    7.44		4.1202e+18
    7.45		4.0983e+18
    7.46		4.0763e+18
    7.47		4.0541e+18
    7.48		4.0318e+18
    7.49		4.0093e+18
    7.50		3.9868e+18
    7.51		3.9641e+18
    7.52		3.9413e+18
    7.53		3.9184e+18
    7.54		3.8954e+18
    7.55		3.8724e+18
    7.56		3.8493e+18
    7.57		3.8262e+18
    7.58		3.8030e+18
    7.59		3.7798e+18
    7.60		3.7566e+18
    7.61		3.7334e+18
    7.62		3.7102e+18
    7.63		3.6870e+18
    7.64		3.6638e+18
    7.65		3.6407e+18
    7.66		3.6177e+18
    7.67		3.5947e+18
    7.68		3.5718e+18
    7.69		3.5489e+18
    7.70		3.5262e+18
    7.71		3.5035e+18
    7.72		3.4810e+18
    7.73		3.4585e+18
    7.74		3.4362e+18
    7.75		3.4139e+18
    7.76		3.3918e+18
    7.77		3.3698e+18
    7.78		3.3479e+18
    7.79		3.3262e+18
    7.80		3.3046e+18
    7.81		3.2831e+18
    7.82		3.2618e+18
    7.83		3.2406e+18
    7.84		3.2196e+18
    7.85		3.1987e+18
    7.86		3.1780e+18
    7.87		3.1575e+18
    7.88		3.1371e+18
    7.89		3.1169e+18
    7.90		3.0969e+18
    7.91		3.0770e+18
    7.92		3.0573e+18
    7.93		3.0378e+18
    7.94		3.0185e+18
    7.95		2.9994e+18
    7.96		2.9804e+18
    7.97		2.9616e+18
    7.98		2.9430e+18
    7.99		2.9245e+18
    8.00		2.9063e+18
    8.01		2.8882e+18
    8.02		2.8703e+18
    8.03		2.8526e+18
    8.04		2.8351e+18
    8.05		2.8178e+18
    8.06		2.8008e+18
    8.07		2.7839e+18
    8.08		2.7672e+18
    8.09		2.7507e+18
    8.10		2.7344e+18
    8.11		2.7183e+18
    8.12		2.7024e+18
    8.13		2.6867e+18
    8.14		2.6712e+18
    8.15		2.6559e+18
    8.16		2.6408e+18
    8.17		2.6258e+18
    8.18		2.6111e+18
    8.19		2.5965e+18
    8.20		2.5821e+18
    8.21		2.5679e+18
    8.22		2.5538e+18
    8.23		2.5399e+18
    8.24		2.5262e+18
    8.25		2.5127e+18
    8.26		2.4993e+18
    8.27		2.4860e+18
    8.28		2.4729e+18
    8.29		2.4599e+18
    8.30		2.4471e+18
    8.31		2.4344e+18
    8.32		2.4218e+18
    8.33		2.4094e+18
    8.34		2.3971e+18
    8.35		2.3848e+18
    8.36		2.3727e+18
    8.37		2.3607e+18
    8.38		2.3488e+18
    8.39		2.3369e+18
    8.40		2.3252e+18
    8.41		2.3135e+18
    8.42		2.3019e+18
    8.43		2.2903e+18
    8.44		2.2788e+18
    8.45		2.2674e+18
    8.46		2.2561e+18
    8.47		2.2448e+18
    8.48		2.2335e+18
    8.49		2.2224e+18
    8.50		2.2112e+18
    8.51		2.2002e+18
    8.52		2.1892e+18
    8.53		2.1783e+18
    8.54		2.1675e+18
    8.55		2.1567e+18
    8.56		2.1460e+18
    8.57		2.1354e+18
    8.58		2.1248e+18
    8.59		2.1143e+18
    8.60		2.1039e+18
    8.61		2.0935e+18
    8.62		2.0833e+18
    8.63		2.0731e+18
    8.64		2.0629e+18
    8.65		2.0528e+18
    8.66		2.0428e+18
    8.67		2.0329e+18
    8.68		2.0230e+18
    8.69		2.0131e+18
    8.70		2.0033e+18
    8.71		1.9936e+18
    8.72		1.9839e+18
    8.73		1.9742e+18
    8.74		1.9646e+18
    8.75		1.9550e+18
    8.76		1.9454e+18
    8.77		1.9359e+18
    8.78		1.9264e+18
    8.79		1.9169e+18
    8.80		1.9074e+18
    8.81		1.8980e+18
    8.82		1.8885e+18
    8.83		1.8791e+18
    8.84		1.8697e+18
    8.85		1.8602e+18
    8.86		1.8508e+18
    8.87		1.8414e+18
    8.88		1.8319e+18
    8.89		1.8224e+18
    8.90		1.8130e+18
    8.91		1.8035e+18
    8.92		1.7940e+18
    8.93		1.7845e+18
    8.94		1.7750e+18
    8.95		1.7655e+18
    8.96		1.7559e+18
    8.97		1.7464e+18
    8.98		1.7368e+18
    8.99		1.7272e+18
    9.00		1.7176e+18
    9.01		1.7080e+18
    9.02		1.6984e+18
    9.03		1.6887e+18
    9.04		1.6790e+18
    9.05		1.6693e+18
    9.06		1.6596e+18
    9.07		1.6499e+18
    9.08		1.6401e+18
    9.09		1.6304e+18
    9.10		1.6206e+18
    9.11		1.6108e+18
    9.12		1.6010e+18
    9.13		1.5912e+18
    9.14		1.5814e+18
    9.15		1.5716e+18
    9.16		1.5619e+18
    9.17		1.5521e+18
    9.18		1.5423e+18
    9.19		1.5326e+18
    9.20		1.5228e+18
    9.21		1.5131e+18
    9.22		1.5033e+18
    9.23		1.4936e+18
    9.24		1.4839e+18
    9.25		1.4742e+18
    9.26		1.4645e+18
    9.27		1.4548e+18
    9.28		1.4452e+18
    9.29		1.4356e+18
    9.30		1.4259e+18
    9.31		1.4163e+18
    9.32		1.4068e+18
    9.33		1.3972e+18
    9.34		1.3876e+18
    9.35		1.3781e+18
    9.36		1.3686e+18
    9.37		1.3591e+18
    9.38		1.3496e+18
    9.39		1.3401e+18
    9.40		1.3306e+18
    9.41		1.3212e+18
    9.42		1.3117e+18
    9.43		1.3023e+18
    9.44		1.2929e+18
    9.45		1.2835e+18
    9.46		1.2741e+18
    9.47		1.2648e+18
    9.48		1.2554e+18
    9.49		1.2461e+18
