dt: 0.01
Time[s]     Moment_Rate [Nm]
    0.00		0.0000e+00
    0.01		1.7412e+12
    0.02		8.7041e+12
    0.03		2.4364e+13
    0.04		5.2189e+13
    0.05		9.5632e+13
    0.06		1.5813e+14
    0.07		2.4311e+14
    0.08		3.5397e+14
    0.09		4.9408e+14
    0.10		6.6679e+14
    0.11		8.7540e+14
    0.12		1.1232e+15
    0.13		1.4134e+15
    0.14		1.7492e+15
    0.15		2.1338e+15
    0.16		2.5703e+15
    0.17		3.0617e+15
    0.18		3.6110e+15
    0.19		4.2212e+15
    0.20		4.8951e+15
    0.21		5.6355e+15
    0.22		6.4453e+15
    0.23		7.3271e+15
    0.24		8.2835e+15
    0.25		9.3170e+15
    0.26		1.0430e+16
    0.27		1.1625e+16
    0.28		1.2905e+16
    0.29		1.4271e+16
    0.30		1.5725e+16
    0.31		1.7270e+16
    0.32		1.8908e+16
    0.33		2.0641e+16
    0.34		2.2469e+16
    0.35		2.4396e+16
    0.36		2.6422e+16
    0.37		2.8549e+16
    0.38		3.0779e+16
    0.39		3.3112e+16
    0.40		3.5551e+16
    0.41		3.8095e+16
    0.42		4.0746e+16
    0.43		4.3505e+16
    0.44		4.6372e+16
    0.45		4.9349e+16
    0.46		5.2435e+16
    0.47		5.5632e+16
    0.48		5.8939e+16
    0.49		6.2357e+16
    0.50		6.5885e+16
    0.51		6.9525e+16
    0.52		7.3275e+16
    0.53		7.7136e+16
    0.54		8.1107e+16
    0.55		8.5187e+16
    0.56		8.9377e+16
    0.57		9.3676e+16
    0.58		9.8082e+16
    0.59		1.0259e+17
    0.60		1.0721e+17
    0.61		1.1194e+17
    0.62		1.1677e+17
    0.63		1.2170e+17
    0.64		1.2673e+17
    0.65		1.3186e+17
    0.66		1.3709e+17
    0.67		1.4241e+17
    0.68		1.4783e+17
    0.69		1.5334e+17
    0.70		1.5894e+17
    0.71		1.6464e+17
    0.72		1.7041e+17
    0.73		1.7628e+17
    0.74		1.8222e+17
    0.75		1.8824e+17
    0.76		1.9434e+17
    0.77		2.0052e+17
    0.78		2.0677e+17
    0.79		2.1308e+17
    0.80		2.1947e+17
    0.81		2.2592e+17
    0.82		2.3242e+17
    0.83		2.3899e+17
    0.84		2.4561e+17
    0.85		2.5228e+17
    0.86		2.5900e+17
    0.87		2.6577e+17
    0.88		2.7258e+17
    0.89		2.7943e+17
    0.90		2.8631e+17
    0.91		2.9323e+17
    0.92		3.0018e+17
    0.93		3.0715e+17
    0.94		3.1414e+17
    0.95		3.2116e+17
    0.96		3.2819e+17
    0.97		3.3523e+17
    0.98		3.4228e+17
    0.99		3.4933e+17
    1.00		3.5639e+17
    1.01		3.6345e+17
    1.02		3.7050e+17
    1.03		3.7756e+17
    1.04		3.8461e+17
    1.05		3.9165e+17
    1.06		3.9870e+17
    1.07		4.0573e+17
    1.08		4.1276e+17
    1.09		4.1978e+17
    1.10		4.2680e+17
    1.11		4.3380e+17
    1.12		4.4080e+17
    1.13		4.4778e+17
    1.14		4.5475e+17
    1.15		4.6171e+17
    1.16		4.6866e+17
    1.17		4.7559e+17
    1.18		4.8251e+17
    1.19		4.8941e+17
    1.20		4.9629e+17
    1.21		5.0316e+17
    1.22		5.1001e+17
    1.23		5.1684e+17
    1.24		5.2365e+17
    1.25		5.3044e+17
    1.26		5.3721e+17
    1.27		5.4395e+17
    1.28		5.5067e+17
    1.29		5.5737e+17
    1.30		5.6404e+17
    1.31		5.7069e+17
    1.32		5.7731e+17
    1.33		5.8390e+17
    1.34		5.9047e+17
    1.35		5.9701e+17
    1.36		6.0351e+17
    1.37		6.0999e+17
    1.38		6.1644e+17
    1.39		6.2285e+17
    1.40		6.2924e+17
    1.41		6.3559e+17
    1.42		6.4191e+17
    1.43		6.4819e+17
    1.44		6.5444e+17
    1.45		6.6065e+17
    1.46		6.6682e+17
    1.47		6.7296e+17
    1.48		6.7906e+17
    1.49		6.8512e+17
    1.50		6.9115e+17
    1.51		6.9713e+17
    1.52		7.0308e+17
    1.53		7.0898e+17
    1.54		7.1484e+17
    1.55		7.2066e+17
    1.56		7.2644e+17
    1.57		7.3218e+17
    1.58		7.3787e+17
    1.59		7.4351e+17
    1.60		7.4912e+17
    1.61		7.5467e+17
    1.62		7.6019e+17
    1.63		7.6565e+17
    1.64		7.7107e+17
    1.65		7.7644e+17
    1.66		7.8177e+17
    1.67		7.8705e+17
    1.68		7.9227e+17
    1.69		7.9745e+17
    1.70		8.0259e+17
    1.71		8.0767e+17
    1.72		8.1270e+17
    1.73		8.1768e+17
    1.74		8.2261e+17
    1.75		8.2749e+17
    1.76		8.3231e+17
    1.77		8.3709e+17
    1.78		8.4181e+17
    1.79		8.4649e+17
    1.80		8.5110e+17
    1.81		8.5567e+17
    1.82		8.6018e+17
    1.83		8.6464e+17
    1.84		8.6905e+17
    1.85		8.7340e+17
    1.86		8.7770e+17
    1.87		8.8195e+17
    1.88		8.8613e+17
    1.89		8.9027e+17
    1.90		8.9435e+17
    1.91		8.9838e+17
    1.92		9.0235e+17
    1.93		9.0626e+17
    1.94		9.1012e+17
    1.95		9.1393e+17
    1.96		9.1768e+17
    1.97		9.2137e+17
    1.98		9.2501e+17
    1.99		9.2860e+17
    2.00		9.3213e+17
    2.01		9.3560e+17
    2.02		9.3903e+17
    2.03		9.4242e+17
    2.04		9.4577e+17
    2.05		9.4908e+17
    2.06		9.5237e+17
    2.07		9.5564e+17
    2.08		9.5890e+17
    2.09		9.6214e+17
    2.10		9.6537e+17
    2.11		9.6861e+17
    2.12		9.7185e+17
    2.13		9.7510e+17
    2.14		9.7836e+17
    2.15		9.8164e+17
    2.16		9.8495e+17
    2.17		9.8829e+17
    2.18		9.9166e+17
    2.19		9.9506e+17
    2.20		9.9852e+17
    2.21		1.0020e+18
    2.22		1.0056e+18
    2.23		1.0092e+18
    2.24		1.0129e+18
    2.25		1.0166e+18
    2.26		1.0204e+18
    2.27		1.0244e+18
    2.28		1.0284e+18
    2.29		1.0324e+18
    2.30		1.0366e+18
    2.31		1.0409e+18
    2.32		1.0453e+18
    2.33		1.0498e+18
    2.34		1.0545e+18
    2.35		1.0592e+18
    2.36		1.0641e+18
    2.37		1.0691e+18
    2.38		1.0742e+18
    2.39		1.0795e+18
    2.40		1.0849e+18
    2.41		1.0905e+18
    2.42		1.0962e+18
    2.43		1.1020e+18
    2.44		1.1080e+18
    2.45		1.1142e+18
    2.46		1.1205e+18
    2.47		1.1270e+18
    2.48		1.1337e+18
    2.49		1.1405e+18
    2.50		1.1475e+18
    2.51		1.1546e+18
    2.52		1.1619e+18
    2.53		1.1694e+18
    2.54		1.1771e+18
    2.55		1.1849e+18
    2.56		1.1930e+18
    2.57		1.2012e+18
    2.58		1.2095e+18
    2.59		1.2181e+18
    2.60		1.2268e+18
    2.61		1.2357e+18
    2.62		1.2447e+18
    2.63		1.2540e+18
    2.64		1.2634e+18
    2.65		1.2730e+18
    2.66		1.2827e+18
    2.67		1.2927e+18
    2.68		1.3028e+18
    2.69		1.3130e+18
    2.70		1.3235e+18
    2.71		1.3341e+18
    2.72		1.3448e+18
    2.73		1.3557e+18
    2.74		1.3668e+18
    2.75		1.3780e+18
    2.76		1.3894e+18
    2.77		1.4010e+18
    2.78		1.4126e+18
    2.79		1.4244e+18
    2.80		1.4364e+18
    2.81		1.4485e+18
    2.82		1.4607e+18
    2.83		1.4731e+18
    2.84		1.4856e+18
    2.85		1.4982e+18
    2.86		1.5109e+18
    2.87		1.5238e+18
    2.88		1.5368e+18
    2.89		1.5500e+18
    2.90		1.5633e+18
    2.91		1.5767e+18
    2.92		1.5902e+18
    2.93		1.6039e+18
    2.94		1.6178e+18
    2.95		1.6317e+18
    2.96		1.6458e+18
    2.97		1.6601e+18
    2.98		1.6744e+18
    2.99		1.6889e+18
    3.00		1.7035e+18
    3.01		1.7183e+18
    3.02		1.7332e+18
    3.03		1.7482e+18
    3.04		1.7633e+18
    3.05		1.7786e+18
    3.06		1.7940e+18
    3.07		1.8095e+18
    3.08		1.8252e+18
    3.09		1.8410e+18
    3.10		1.8569e+18
    3.11		1.8730e+18
    3.12		1.8891e+18
    3.13		1.9054e+18
    3.14		1.9219e+18
    3.15		1.9384e+18
    3.16		1.9551e+18
    3.17		1.9719e+18
    3.18		1.9889e+18
    3.19		2.0059e+18
    3.20		2.0231e+18
    3.21		2.0404e+18
    3.22		2.0578e+18
    3.23		2.0754e+18
    3.24		2.0931e+18
    3.25		2.1109e+18
    3.26		2.1288e+18
    3.27		2.1469e+18
    3.28		2.1650e+18
    3.29		2.1833e+18
    3.30		2.2017e+18
    3.31		2.2203e+18
    3.32		2.2389e+18
    3.33		2.2577e+18
    3.34		2.2766e+18
    3.35		2.2956e+18
    3.36		2.3147e+18
    3.37		2.3340e+18
    3.38		2.3533e+18
    3.39		2.3728e+18
    3.40		2.3924e+18
    3.41		2.4120e+18
    3.42		2.4318e+18
    3.43		2.4518e+18
    3.44		2.4718e+18
    3.45		2.4919e+18
    3.46		2.5121e+18
    3.47		2.5324e+18
    3.48		2.5528e+18
    3.49		2.5733e+18
    3.50		2.5939e+18
    3.51		2.6146e+18
    3.52		2.6354e+18
    3.53		2.6563e+18
    3.54		2.6772e+18
    3.55		2.6983e+18
    3.56		2.7194e+18
    3.57		2.7406e+18
    3.58		2.7618e+18
    3.59		2.7832e+18
    3.60		2.8046e+18
    3.61		2.8261e+18
    3.62		2.8476e+18
    3.63		2.8693e+18
    3.64		2.8909e+18
    3.65		2.9127e+18
    3.66		2.9345e+18
    3.67		2.9563e+18
    3.68		2.9782e+18
    3.69		3.0001e+18
    3.70		3.0221e+18
    3.71		3.0441e+18
    3.72		3.0662e+18
    3.73		3.0883e+18
    3.74		3.1105e+18
    3.75		3.1326e+18
    3.76		3.1548e+18
    3.77		3.1771e+18
    3.78		3.1993e+18
    3.79		3.2216e+18
    3.80		3.2439e+18
    3.81		3.2662e+18
    3.82		3.2885e+18
    3.83		3.3108e+18
    3.84		3.3332e+18
    3.85		3.3555e+18
    3.86		3.3779e+18
    3.87		3.4002e+18
    3.88		3.4226e+18
    3.89		3.4450e+18
    3.90		3.4673e+18
    3.91		3.4896e+18
    3.92		3.5120e+18
    3.93		3.5343e+18
    3.94		3.5566e+18
    3.95		3.5789e+18
    3.96		3.6012e+18
    3.97		3.6234e+18
    3.98		3.6457e+18
    3.99		3.6679e+18
    4.00		3.6901e+18
    4.01		3.7122e+18
    4.02		3.7344e+18
    4.03		3.7564e+18
    4.04		3.7785e+18
    4.05		3.8005e+18
    4.06		3.8224e+18
    4.07		3.8442e+18
    4.08		3.8660e+18
    4.09		3.8878e+18
    4.10		3.9094e+18
    4.11		3.9310e+18
    4.12		3.9524e+18
    4.13		3.9738e+18
    4.14		3.9951e+18
    4.15		4.0163e+18
    4.16		4.0374e+18
    4.17		4.0584e+18
    4.18		4.0792e+18
    4.19		4.1000e+18
    4.20		4.1206e+18
    4.21		4.1411e+18
    4.22		4.1615e+18
    4.23		4.1817e+18
    4.24		4.2019e+18
    4.25		4.2218e+18
    4.26		4.2417e+18
    4.27		4.2613e+18
    4.28		4.2809e+18
    4.29		4.3002e+18
    4.30		4.3194e+18
    4.31		4.3385e+18
    4.32		4.3574e+18
    4.33		4.3761e+18
    4.34		4.3947e+18
    4.35		4.4130e+18
    4.36		4.4312e+18
    4.37		4.4493e+18
    4.38		4.4671e+18
    4.39		4.4848e+18
    4.40		4.5023e+18
    4.41		4.5196e+18
    4.42		4.5367e+18
    4.43		4.5536e+18
    4.44		4.5704e+18
    4.45		4.5870e+18
    4.46		4.6033e+18
    4.47		4.6195e+18
    4.48		4.6356e+18
    4.49		4.6514e+18
    4.50		4.6670e+18
    4.51		4.6825e+18
    4.52		4.6979e+18
    4.53		4.7131e+18
    4.54		4.7281e+18
    4.55		4.7430e+18
    4.56		4.7577e+18
    4.57		4.7723e+18
    4.58		4.7868e+18
    4.59		4.8012e+18
    4.60		4.8155e+18
    4.61		4.8296e+18
    4.62		4.8437e+18
    4.63		4.8577e+18
    4.64		4.8716e+18
    4.65		4.8854e+18
    4.66		4.8991e+18
    4.67		4.9128e+18
    4.68		4.9265e+18
    4.69		4.9401e+18
    4.70		4.9537e+18
    4.71		4.9673e+18
    4.72		4.9809e+18
    4.73		4.9946e+18
    4.74		5.0083e+18
    4.75		5.0221e+18
    4.76		5.0360e+18
    4.77		5.0500e+18
    4.78		5.0642e+18
    4.79		5.0785e+18
    4.80		5.0929e+18
    4.81		5.1075e+18
    4.82		5.1223e+18
    4.83		5.1373e+18
    4.84		5.1526e+18
    4.85		5.1680e+18
    4.86		5.1837e+18
    4.87		5.1996e+18
    4.88		5.2158e+18
    4.89		5.2321e+18
    4.90		5.2488e+18
    4.91		5.2656e+18
    4.92		5.2828e+18
    4.93		5.3002e+18
    4.94		5.3179e+18
    4.95		5.3358e+18
    4.96		5.3540e+18
    4.97		5.3725e+18
    4.98		5.3913e+18
    4.99		5.4103e+18
    5.00		5.4296e+18
    5.01		5.4492e+18
    5.02		5.4691e+18
    5.03		5.4893e+18
    5.04		5.5098e+18
    5.05		5.5305e+18
    5.06		5.5515e+18
    5.07		5.5727e+18
    5.08		5.5942e+18
    5.09		5.6159e+18
    5.10		5.6378e+18
    5.11		5.6600e+18
    5.12		5.6824e+18
    5.13		5.7051e+18
    5.14		5.7279e+18
    5.15		5.7509e+18
    5.16		5.7742e+18
    5.17		5.7976e+18
    5.18		5.8212e+18
    5.19		5.8450e+18
    5.20		5.8690e+18
    5.21		5.8931e+18
    5.22		5.9174e+18
    5.23		5.9418e+18
    5.24		5.9663e+18
    5.25		5.9909e+18
    5.26		6.0157e+18
    5.27		6.0406e+18
    5.28		6.0655e+18
    5.29		6.0906e+18
    5.30		6.1157e+18
    5.31		6.1409e+18
    5.32		6.1661e+18
    5.33		6.1913e+18
    5.34		6.2166e+18
    5.35		6.2419e+18
    5.36		6.2672e+18
    5.37		6.2925e+18
    5.38		6.3178e+18
    5.39		6.3431e+18
    5.40		6.3683e+18
    5.41		6.3935e+18
    5.42		6.4187e+18
    5.43		6.4438e+18
    5.44		6.4688e+18
    5.45		6.4937e+18
    5.46		6.5185e+18
    5.47		6.5432e+18
    5.48		6.5678e+18
    5.49		6.5923e+18
    5.50		6.6167e+18
    5.51		6.6409e+18
    5.52		6.6649e+18
    5.53		6.6888e+18
    5.54		6.7126e+18
    5.55		6.7361e+18
    5.56		6.7595e+18
    5.57		6.7827e+18
    5.58		6.8057e+18
    5.59		6.8284e+18
    5.60		6.8510e+18
    5.61		6.8733e+18
    5.62		6.8954e+18
    5.63		6.9173e+18
    5.64		6.9389e+18
    5.65		6.9603e+18
    5.66		6.9814e+18
    5.67		7.0022e+18
    5.68		7.0228e+18
    5.69		7.0432e+18
    5.70		7.0632e+18
    5.71		7.0830e+18
    5.72		7.1025e+18
    5.73		7.1217e+18
    5.74		7.1406e+18
    5.75		7.1592e+18
    5.76		7.1775e+18
    5.77		7.1956e+18
    5.78		7.2133e+18
    5.79		7.2308e+18
    5.80		7.2479e+18
    5.81		7.2648e+18
    5.82		7.2813e+18
    5.83		7.2976e+18
    5.84		7.3135e+18
    5.85		7.3292e+18
    5.86		7.3446e+18
    5.87		7.3596e+18
    5.88		7.3744e+18
    5.89		7.3889e+18
    5.90		7.4031e+18
    5.91		7.4170e+18
    5.92		7.4306e+18
    5.93		7.4439e+18
    5.94		7.4570e+18
    5.95		7.4697e+18
    5.96		7.4823e+18
    5.97		7.4945e+18
    5.98		7.5065e+18
    5.99		7.5183e+18
    6.00		7.5297e+18
    6.01		7.5410e+18
    6.02		7.5520e+18
    6.03		7.5627e+18
    6.04		7.5732e+18
    6.05		7.5834e+18
    6.06		7.5933e+18
    6.07		7.6029e+18
    6.08		7.6123e+18
    6.09		7.6213e+18
    6.10		7.6301e+18
    6.11		7.6385e+18
    6.12		7.6467e+18
    6.13		7.6545e+18
    6.14		7.6621e+18
    6.15		7.6693e+18
    6.16		7.6763e+18
    6.17		7.6829e+18
    6.18		7.6892e+18
    6.19		7.6952e+18
    6.20		7.7009e+18
    6.21		7.7062e+18
    6.22		7.7113e+18
    6.23		7.7161e+18
    6.24		7.7205e+18
    6.25		7.7247e+18
    6.26		7.7286e+18
    6.27		7.7321e+18
    6.28		7.7354e+18
    6.29		7.7384e+18
    6.30		7.7411e+18
    6.31		7.7435e+18
    6.32		7.7457e+18
    6.33		7.7476e+18
    6.34		7.7493e+18
    6.35		7.7507e+18
    6.36		7.7518e+18
    6.37		7.7528e+18
    6.38		7.7535e+18
    6.39		7.7541e+18
    6.40		7.7544e+18
    6.41		7.7545e+18
    6.42		7.7545e+18
    6.43		7.7543e+18
    6.44		7.7540e+18
    6.45		7.7536e+18
    6.46		7.7530e+18
    6.47		7.7523e+18
    6.48		7.7515e+18
    6.49		7.7506e+18
    6.50		7.7496e+18
    6.51		7.7484e+18
    6.52		7.7472e+18
    6.53		7.7459e+18
    6.54		7.7445e+18
    6.55		7.7431e+18
    6.56		7.7415e+18
    6.57		7.7399e+18
    6.58		7.7382e+18
    6.59		7.7364e+18
    6.60		7.7346e+18
    6.61		7.7328e+18
    6.62		7.7309e+18
    6.63		7.7289e+18
    6.64		7.7269e+18
    6.65		7.7249e+18
    6.66		7.7229e+18
    6.67		7.7209e+18
    6.68		7.7188e+18
    6.69		7.7167e+18
    6.70		7.7146e+18
    6.71		7.7124e+18
    6.72		7.7102e+18
    6.73		7.7079e+18
    6.74		7.7054e+18
    6.75		7.7029e+18
    6.76		7.7003e+18
    6.77		7.6975e+18
    6.78		7.6946e+18
    6.79		7.6916e+18
    6.80		7.6884e+18
    6.81		7.6851e+18
    6.82		7.6815e+18
    6.83		7.6778e+18
    6.84		7.6739e+18
    6.85		7.6698e+18
    6.86		7.6655e+18
    6.87		7.6610e+18
    6.88		7.6564e+18
    6.89		7.6515e+18
    6.90		7.6463e+18
    6.91		7.6410e+18
    6.92		7.6355e+18
    6.93		7.6297e+18
    6.94		7.6237e+18
    6.95		7.6175e+18
    6.96		7.6111e+18
    6.97		7.6045e+18
    6.98		7.5976e+18
    6.99		7.5905e+18
    7.00		7.5831e+18
    7.01		7.5755e+18
    7.02		7.5677e+18
    7.03		7.5597e+18
    7.04		7.5514e+18
    7.05		7.5429e+18
    7.06		7.5342e+18
    7.07		7.5253e+18
    7.08		7.5162e+18
    7.09		7.5068e+18
    7.10		7.4973e+18
    7.11		7.4875e+18
    7.12		7.4776e+18
    7.13		7.4674e+18
    7.14		7.4570e+18
    7.15		7.4465e+18
    7.16		7.4357e+18
    7.17		7.4248e+18
    7.18		7.4136e+18
    7.19		7.4023e+18
    7.20		7.3908e+18
    7.21		7.3791e+18
    7.22		7.3673e+18
    7.23		7.3553e+18
    7.24		7.3432e+18
    7.25		7.3309e+18
    7.26		7.3185e+18
    7.27		7.3060e+18
    7.28		7.2934e+18
    7.29		7.2807e+18
    7.30		7.2679e+18
    7.31		7.2550e+18
    7.32		7.2421e+18
    7.33		7.2291e+18
    7.34		7.2160e+18
    7.35		7.2030e+18
    7.36		7.1899e+18
    7.37		7.1768e+18
    7.38		7.1637e+18
    7.39		7.1506e+18
    7.40		7.1376e+18
    7.41		7.1246e+18
    7.42		7.1116e+18
    7.43		7.0987e+18
    7.44		7.0858e+18
    7.45		7.0731e+18
    7.46		7.0604e+18
    7.47		7.0478e+18
    7.48		7.0353e+18
    7.49		7.0229e+18
    7.50		7.0107e+18
    7.51		6.9986e+18
    7.52		6.9866e+18
    7.53		6.9747e+18
    7.54		6.9631e+18
    7.55		6.9515e+18
    7.56		6.9402e+18
    7.57		6.9290e+18
    7.58		6.9180e+18
    7.59		6.9071e+18
    7.60		6.8965e+18
    7.61		6.8861e+18
    7.62		6.8759e+18
    7.63		6.8659e+18
    7.64		6.8561e+18
    7.65		6.8465e+18
    7.66		6.8372e+18
    7.67		6.8282e+18
    7.68		6.8193e+18
    7.69		6.8108e+18
    7.70		6.8024e+18
    7.71		6.7944e+18
    7.72		6.7865e+18
    7.73		6.7790e+18
    7.74		6.7717e+18
    7.75		6.7646e+18
    7.76		6.7578e+18
    7.77		6.7513e+18
    7.78		6.7451e+18
    7.79		6.7391e+18
    7.80		6.7334e+18
    7.81		6.7279e+18
    7.82		6.7227e+18
    7.83		6.7178e+18
    7.84		6.7131e+18
    7.85		6.7088e+18
    7.86		6.7046e+18
    7.87		6.7008e+18
    7.88		6.6971e+18
    7.89		6.6938e+18
    7.90		6.6907e+18
    7.91		6.6879e+18
    7.92		6.6853e+18
    7.93		6.6830e+18
    7.94		6.6809e+18
    7.95		6.6791e+18
    7.96		6.6775e+18
    7.97		6.6761e+18
    7.98		6.6750e+18
    7.99		6.6741e+18
    8.00		6.6734e+18
    8.01		6.6730e+18
    8.02		6.6727e+18
    8.03		6.6727e+18
    8.04		6.6729e+18
    8.05		6.6734e+18
    8.06		6.6741e+18
    8.07		6.6750e+18
    8.08		6.6761e+18
    8.09		6.6775e+18
    8.10		6.6791e+18
    8.11		6.6809e+18
    8.12		6.6830e+18
    8.13		6.6853e+18
    8.14		6.6877e+18
    8.15		6.6905e+18
    8.16		6.6934e+18
    8.17		6.6965e+18
    8.18		6.6999e+18
    8.19		6.7034e+18
    8.20		6.7072e+18
    8.21		6.7111e+18
    8.22		6.7153e+18
    8.23		6.7196e+18
    8.24		6.7241e+18
    8.25		6.7287e+18
    8.26		6.7335e+18
    8.27		6.7385e+18
    8.28		6.7436e+18
    8.29		6.7489e+18
    8.30		6.7543e+18
    8.31		6.7599e+18
    8.32		6.7655e+18
    8.33		6.7713e+18
    8.34		6.7772e+18
    8.35		6.7831e+18
    8.36		6.7891e+18
    8.37		6.7952e+18
    8.38		6.8013e+18
    8.39		6.8074e+18
    8.40		6.8135e+18
    8.41		6.8196e+18
    8.42		6.8257e+18
    8.43		6.8318e+18
    8.44		6.8378e+18
    8.45		6.8438e+18
    8.46		6.8496e+18
    8.47		6.8554e+18
    8.48		6.8611e+18
    8.49		6.8666e+18
    8.50		6.8721e+18
    8.51		6.8774e+18
    8.52		6.8826e+18
    8.53		6.8876e+18
    8.54		6.8925e+18
    8.55		6.8972e+18
    8.56		6.9018e+18
    8.57		6.9062e+18
    8.58		6.9103e+18
    8.59		6.9143e+18
    8.60		6.9181e+18
    8.61		6.9216e+18
    8.62		6.9249e+18
    8.63		6.9279e+18
    8.64		6.9307e+18
    8.65		6.9333e+18
    8.66		6.9355e+18
    8.67		6.9375e+18
    8.68		6.9392e+18
    8.69		6.9406e+18
    8.70		6.9417e+18
    8.71		6.9425e+18
    8.72		6.9430e+18
    8.73		6.9433e+18
    8.74		6.9432e+18
    8.75		6.9428e+18
    8.76		6.9422e+18
    8.77		6.9412e+18
    8.78		6.9400e+18
    8.79		6.9384e+18
    8.80		6.9366e+18
    8.81		6.9344e+18
    8.82		6.9320e+18
    8.83		6.9292e+18
    8.84		6.9261e+18
    8.85		6.9227e+18
    8.86		6.9190e+18
    8.87		6.9150e+18
    8.88		6.9107e+18
    8.89		6.9061e+18
    8.90		6.9012e+18
    8.91		6.8960e+18
    8.92		6.8905e+18
    8.93		6.8847e+18
    8.94		6.8786e+18
    8.95		6.8722e+18
    8.96		6.8655e+18
    8.97		6.8586e+18
    8.98		6.8513e+18
    8.99		6.8438e+18
    9.00		6.8360e+18
    9.01		6.8279e+18
    9.02		6.8196e+18
    9.03		6.8110e+18
    9.04		6.8021e+18
    9.05		6.7930e+18
    9.06		6.7836e+18
    9.07		6.7740e+18
    9.08		6.7642e+18
    9.09		6.7541e+18
    9.10		6.7438e+18
    9.11		6.7332e+18
    9.12		6.7225e+18
    9.13		6.7115e+18
    9.14		6.7004e+18
    9.15		6.6891e+18
    9.16		6.6775e+18
    9.17		6.6658e+18
    9.18		6.6540e+18
    9.19		6.6420e+18
    9.20		6.6298e+18
    9.21		6.6175e+18
    9.22		6.6050e+18
    9.23		6.5924e+18
    9.24		6.5797e+18
    9.25		6.5668e+18
    9.26		6.5538e+18
    9.27		6.5407e+18
    9.28		6.5273e+18
    9.29		6.5139e+18
    9.30		6.5003e+18
    9.31		6.4865e+18
    9.32		6.4726e+18
    9.33		6.4586e+18
    9.34		6.4444e+18
    9.35		6.4300e+18
    9.36		6.4155e+18
    9.37		6.4008e+18
    9.38		6.3860e+18
    9.39		6.3710e+18
    9.40		6.3559e+18
    9.41		6.3406e+18
    9.42		6.3252e+18
    9.43		6.3096e+18
    9.44		6.2939e+18
    9.45		6.2780e+18
    9.46		6.2620e+18
    9.47		6.2459e+18
    9.48		6.2296e+18
    9.49		6.2131e+18
