dt: 0.01
Time[s]     Moment_Rate [Nm]
    0.00		0.0000e+00
    0.01		1.5176e+11
    0.02		7.5872e+11
    0.03		2.1241e+12
    0.04		4.5509e+12
    0.05		8.3415e+12
    0.06		1.3798e+13
    0.07		2.1221e+13
    0.08		3.0911e+13
    0.09		4.3167e+13
    0.10		5.8288e+13
    0.11		7.6570e+13
    0.12		9.8309e+13
    0.13		1.2380e+14
    0.14		1.5333e+14
    0.15		1.8720e+14
    0.16		2.2569e+14
    0.17		2.6908e+14
    0.18		3.1768e+14
    0.19		3.7174e+14
    0.20		4.3157e+14
    0.21		4.9742e+14
    0.22		5.6958e+14
    0.23		6.4832e+14
    0.24		7.3391e+14
    0.25		8.2662e+14
    0.26		9.2670e+14
    0.27		1.0344e+15
    0.28		1.1500e+15
    0.29		1.2738e+15
    0.30		1.4059e+15
    0.31		1.5467e+15
    0.32		1.6964e+15
    0.33		1.8552e+15
    0.34		2.0233e+15
    0.35		2.2011e+15
    0.36		2.3886e+15
    0.37		2.5862e+15
    0.38		2.7940e+15
    0.39		3.0123e+15
    0.40		3.2412e+15
    0.41		3.4810e+15
    0.42		3.7319e+15
    0.43		3.9941e+15
    0.44		4.2677e+15
    0.45		4.5529e+15
    0.46		4.8499e+15
    0.47		5.1590e+15
    0.48		5.4802e+15
    0.49		5.8137e+15
    0.50		6.1596e+15
    0.51		6.5182e+15
    0.52		6.8896e+15
    0.53		7.2739e+15
    0.54		7.6712e+15
    0.55		8.0817e+15
    0.56		8.5056e+15
    0.57		8.9428e+15
    0.58		9.3935e+15
    0.59		9.8579e+15
    0.60		1.0336e+16
    0.61		1.0828e+16
    0.62		1.1334e+16
    0.63		1.1854e+16
    0.64		1.2388e+16
    0.65		1.2936e+16
    0.66		1.3498e+16
    0.67		1.4075e+16
    0.68		1.4666e+16
    0.69		1.5271e+16
    0.70		1.5890e+16
    0.71		1.6524e+16
    0.72		1.7173e+16
    0.73		1.7836e+16
    0.74		1.8513e+16
    0.75		1.9205e+16
    0.76		1.9912e+16
    0.77		2.0633e+16
    0.78		2.1368e+16
    0.79		2.2118e+16
    0.80		2.2882e+16
    0.81		2.3661e+16
    0.82		2.4454e+16
    0.83		2.5261e+16
    0.84		2.6083e+16
    0.85		2.6919e+16
    0.86		2.7769e+16
    0.87		2.8633e+16
    0.88		2.9511e+16
    0.89		3.0403e+16
    0.90		3.1308e+16
    0.91		3.2228e+16
    0.92		3.3161e+16
    0.93		3.4108e+16
    0.94		3.5068e+16
    0.95		3.6041e+16
    0.96		3.7028e+16
    0.97		3.8027e+16
    0.98		3.9040e+16
    0.99		4.0065e+16
    1.00		4.1103e+16
    1.01		4.2154e+16
    1.02		4.3216e+16
    1.03		4.4291e+16
    1.04		4.5378e+16
    1.05		4.6477e+16
    1.06		4.7587e+16
    1.07		4.8709e+16
    1.08		4.9842e+16
    1.09		5.0986e+16
    1.10		5.2141e+16
    1.11		5.3306e+16
    1.12		5.4483e+16
    1.13		5.5669e+16
    1.14		5.6865e+16
    1.15		5.8071e+16
    1.16		5.9287e+16
    1.17		6.0512e+16
    1.18		6.1746e+16
    1.19		6.2990e+16
    1.20		6.4241e+16
    1.21		6.5502e+16
    1.22		6.6770e+16
    1.23		6.8046e+16
    1.24		6.9330e+16
    1.25		7.0621e+16
    1.26		7.1919e+16
    1.27		7.3224e+16
    1.28		7.4536e+16
    1.29		7.5854e+16
    1.30		7.7178e+16
    1.31		7.8508e+16
    1.32		7.9843e+16
    1.33		8.1184e+16
    1.34		8.2529e+16
    1.35		8.3880e+16
    1.36		8.5234e+16
    1.37		8.6593e+16
    1.38		8.7955e+16
    1.39		8.9322e+16
    1.40		9.0691e+16
    1.41		9.2064e+16
    1.42		9.3439e+16
    1.43		9.4817e+16
    1.44		9.6197e+16
    1.45		9.7579e+16
    1.46		9.8962e+16
    1.47		1.0035e+17
    1.48		1.0173e+17
    1.49		1.0312e+17
    1.50		1.0451e+17
    1.51		1.0590e+17
    1.52		1.0728e+17
    1.53		1.0867e+17
    1.54		1.1006e+17
    1.55		1.1144e+17
    1.56		1.1283e+17
    1.57		1.1422e+17
    1.58		1.1560e+17
    1.59		1.1698e+17
    1.60		1.1836e+17
    1.61		1.1975e+17
    1.62		1.2112e+17
    1.63		1.2250e+17
    1.64		1.2388e+17
    1.65		1.2525e+17
    1.66		1.2662e+17
    1.67		1.2799e+17
    1.68		1.2935e+17
    1.69		1.3072e+17
    1.70		1.3207e+17
    1.71		1.3343e+17
    1.72		1.3478e+17
    1.73		1.3613e+17
    1.74		1.3747e+17
    1.75		1.3880e+17
    1.76		1.4013e+17
    1.77		1.4146e+17
    1.78		1.4278e+17
    1.79		1.4409e+17
    1.80		1.4540e+17
    1.81		1.4670e+17
    1.82		1.4800e+17
    1.83		1.4929e+17
    1.84		1.5057e+17
    1.85		1.5184e+17
    1.86		1.5311e+17
    1.87		1.5437e+17
    1.88		1.5562e+17
    1.89		1.5686e+17
    1.90		1.5809e+17
    1.91		1.5932e+17
    1.92		1.6054e+17
    1.93		1.6174e+17
    1.94		1.6294e+17
    1.95		1.6413e+17
    1.96		1.6531e+17
    1.97		1.6648e+17
    1.98		1.6764e+17
    1.99		1.6879e+17
    2.00		1.6993e+17
    2.01		1.7106e+17
    2.02		1.7218e+17
    2.03		1.7329e+17
    2.04		1.7439e+17
    2.05		1.7547e+17
    2.06		1.7655e+17
    2.07		1.7761e+17
    2.08		1.7867e+17
    2.09		1.7971e+17
    2.10		1.8074e+17
    2.11		1.8176e+17
    2.12		1.8277e+17
    2.13		1.8376e+17
    2.14		1.8475e+17
    2.15		1.8572e+17
    2.16		1.8668e+17
    2.17		1.8763e+17
    2.18		1.8857e+17
    2.19		1.8949e+17
    2.20		1.9040e+17
    2.21		1.9130e+17
    2.22		1.9219e+17
    2.23		1.9307e+17
    2.24		1.9394e+17
    2.25		1.9479e+17
    2.26		1.9563e+17
    2.27		1.9646e+17
    2.28		1.9728e+17
    2.29		1.9808e+17
    2.30		1.9888e+17
    2.31		1.9966e+17
    2.32		2.0043e+17
    2.33		2.0119e+17
    2.34		2.0194e+17
    2.35		2.0268e+17
    2.36		2.0341e+17
    2.37		2.0413e+17
    2.38		2.0483e+17
    2.39		2.0553e+17
    2.40		2.0622e+17
    2.41		2.0690e+17
    2.42		2.0757e+17
    2.43		2.0823e+17
    2.44		2.0888e+17
    2.45		2.0953e+17
    2.46		2.1016e+17
    2.47		2.1079e+17
    2.48		2.1142e+17
    2.49		2.1203e+17
    2.50		2.1264e+17
    2.51		2.1324e+17
    2.52		2.1384e+17
    2.53		2.1443e+17
    2.54		2.1501e+17
    2.55		2.1559e+17
    2.56		2.1617e+17
    2.57		2.1674e+17
    2.58		2.1731e+17
    2.59		2.1787e+17
    2.60		2.1843e+17
    2.61		2.1899e+17
    2.62		2.1954e+17
    2.63		2.2009e+17
    2.64		2.2064e+17
    2.65		2.2119e+17
    2.66		2.2174e+17
    2.67		2.2228e+17
    2.68		2.2283e+17
    2.69		2.2338e+17
    2.70		2.2392e+17
    2.71		2.2447e+17
    2.72		2.2502e+17
    2.73		2.2557e+17
    2.74		2.2612e+17
    2.75		2.2667e+17
    2.76		2.2723e+17
    2.77		2.2779e+17
    2.78		2.2835e+17
    2.79		2.2892e+17
    2.80		2.2949e+17
    2.81		2.3006e+17
    2.82		2.3065e+17
    2.83		2.3123e+17
    2.84		2.3182e+17
    2.85		2.3242e+17
    2.86		2.3303e+17
    2.87		2.3364e+17
    2.88		2.3426e+17
    2.89		2.3489e+17
    2.90		2.3552e+17
    2.91		2.3617e+17
    2.92		2.3682e+17
    2.93		2.3749e+17
    2.94		2.3816e+17
    2.95		2.3884e+17
    2.96		2.3954e+17
    2.97		2.4024e+17
    2.98		2.4096e+17
    2.99		2.4169e+17
    3.00		2.4243e+17
    3.01		2.4318e+17
    3.02		2.4395e+17
    3.03		2.4473e+17
    3.04		2.4552e+17
    3.05		2.4632e+17
    3.06		2.4714e+17
    3.07		2.4797e+17
    3.08		2.4882e+17
    3.09		2.4967e+17
    3.10		2.5055e+17
    3.11		2.5143e+17
    3.12		2.5233e+17
    3.13		2.5325e+17
    3.14		2.5418e+17
    3.15		2.5512e+17
    3.16		2.5608e+17
    3.17		2.5705e+17
    3.18		2.5804e+17
    3.19		2.5905e+17
    3.20		2.6007e+17
    3.21		2.6111e+17
    3.22		2.6216e+17
    3.23		2.6323e+17
    3.24		2.6431e+17
    3.25		2.6541e+17
    3.26		2.6652e+17
    3.27		2.6765e+17
    3.28		2.6880e+17
    3.29		2.6996e+17
    3.30		2.7114e+17
    3.31		2.7234e+17
    3.32		2.7354e+17
    3.33		2.7477e+17
    3.34		2.7601e+17
    3.35		2.7726e+17
    3.36		2.7853e+17
    3.37		2.7982e+17
    3.38		2.8112e+17
    3.39		2.8244e+17
    3.40		2.8377e+17
    3.41		2.8511e+17
    3.42		2.8647e+17
    3.43		2.8785e+17
    3.44		2.8924e+17
    3.45		2.9064e+17
    3.46		2.9206e+17
    3.47		2.9349e+17
    3.48		2.9494e+17
    3.49		2.9640e+17
    3.50		2.9787e+17
    3.51		2.9936e+17
    3.52		3.0086e+17
    3.53		3.0238e+17
    3.54		3.0391e+17
    3.55		3.0546e+17
    3.56		3.0702e+17
    3.57		3.0860e+17
    3.58		3.1019e+17
    3.59		3.1180e+17
    3.60		3.1342e+17
    3.61		3.1506e+17
    3.62		3.1672e+17
    3.63		3.1839e+17
    3.64		3.2007e+17
    3.65		3.2178e+17
    3.66		3.2350e+17
    3.67		3.2523e+17
    3.68		3.2698e+17
    3.69		3.2875e+17
    3.70		3.3054e+17
    3.71		3.3234e+17
    3.72		3.3416e+17
    3.73		3.3599e+17
    3.74		3.3785e+17
    3.75		3.3972e+17
    3.76		3.4161e+17
    3.77		3.4351e+17
    3.78		3.4544e+17
    3.79		3.4738e+17
    3.80		3.4934e+17
    3.81		3.5132e+17
    3.82		3.5332e+17
    3.83		3.5533e+17
    3.84		3.5737e+17
    3.85		3.5942e+17
    3.86		3.6150e+17
    3.87		3.6359e+17
    3.88		3.6571e+17
    3.89		3.6784e+17
    3.90		3.7000e+17
    3.91		3.7217e+17
    3.92		3.7437e+17
    3.93		3.7659e+17
    3.94		3.7883e+17
    3.95		3.8108e+17
    3.96		3.8336e+17
    3.97		3.8566e+17
    3.98		3.8798e+17
    3.99		3.9033e+17
    4.00		3.9269e+17
    4.01		3.9507e+17
    4.02		3.9747e+17
    4.03		3.9990e+17
    4.04		4.0234e+17
    4.05		4.0480e+17
    4.06		4.0729e+17
    4.07		4.0979e+17
    4.08		4.1232e+17
    4.09		4.1486e+17
    4.10		4.1743e+17
    4.11		4.2001e+17
    4.12		4.2262e+17
    4.13		4.2524e+17
    4.14		4.2789e+17
    4.15		4.3055e+17
    4.16		4.3323e+17
    4.17		4.3594e+17
    4.18		4.3866e+17
    4.19		4.4140e+17
    4.20		4.4415e+17
    4.21		4.4693e+17
    4.22		4.4973e+17
    4.23		4.5254e+17
    4.24		4.5537e+17
    4.25		4.5822e+17
    4.26		4.6109e+17
    4.27		4.6397e+17
    4.28		4.6687e+17
    4.29		4.6979e+17
    4.30		4.7272e+17
    4.31		4.7567e+17
    4.32		4.7864e+17
    4.33		4.8162e+17
    4.34		4.8462e+17
    4.35		4.8764e+17
    4.36		4.9067e+17
    4.37		4.9371e+17
    4.38		4.9677e+17
    4.39		4.9984e+17
    4.40		5.0293e+17
    4.41		5.0603e+17
    4.42		5.0915e+17
    4.43		5.1228e+17
    4.44		5.1542e+17
    4.45		5.1858e+17
    4.46		5.2175e+17
    4.47		5.2493e+17
    4.48		5.2812e+17
    4.49		5.3133e+17
    4.50		5.3454e+17
    4.51		5.3777e+17
    4.52		5.4101e+17
    4.53		5.4426e+17
    4.54		5.4752e+17
    4.55		5.5079e+17
    4.56		5.5407e+17
    4.57		5.5736e+17
    4.58		5.6066e+17
    4.59		5.6397e+17
    4.60		5.6728e+17
    4.61		5.7061e+17
    4.62		5.7394e+17
    4.63		5.7728e+17
    4.64		5.8063e+17
    4.65		5.8399e+17
    4.66		5.8736e+17
    4.67		5.9073e+17
    4.68		5.9412e+17
    4.69		5.9751e+17
    4.70		6.0091e+17
    4.71		6.0431e+17
    4.72		6.0773e+17
    4.73		6.1115e+17
    4.74		6.1457e+17
    4.75		6.1801e+17
    4.76		6.2145e+17
    4.77		6.2490e+17
    4.78		6.2836e+17
    4.79		6.3182e+17
    4.80		6.3529e+17
    4.81		6.3876e+17
    4.82		6.4224e+17
    4.83		6.4573e+17
    4.84		6.4922e+17
    4.85		6.5271e+17
    4.86		6.5621e+17
    4.87		6.5972e+17
    4.88		6.6323e+17
    4.89		6.6674e+17
    4.90		6.7026e+17
    4.91		6.7378e+17
    4.92		6.7731e+17
    4.93		6.8083e+17
    4.94		6.8436e+17
    4.95		6.8790e+17
    4.96		6.9144e+17
    4.97		6.9498e+17
    4.98		6.9852e+17
    4.99		7.0206e+17
    5.00		7.0560e+17
    5.01		7.0915e+17
    5.02		7.1270e+17
    5.03		7.1624e+17
    5.04		7.1979e+17
    5.05		7.2334e+17
    5.06		7.2689e+17
    5.07		7.3044e+17
    5.08		7.3399e+17
    5.09		7.3754e+17
    5.10		7.4109e+17
    5.11		7.4464e+17
    5.12		7.4819e+17
    5.13		7.5174e+17
    5.14		7.5528e+17
    5.15		7.5883e+17
    5.16		7.6237e+17
    5.17		7.6591e+17
    5.18		7.6944e+17
    5.19		7.7297e+17
    5.20		7.7650e+17
    5.21		7.8003e+17
    5.22		7.8355e+17
    5.23		7.8706e+17
    5.24		7.9057e+17
    5.25		7.9408e+17
    5.26		7.9758e+17
    5.27		8.0107e+17
    5.28		8.0456e+17
    5.29		8.0804e+17
    5.30		8.1151e+17
    5.31		8.1497e+17
    5.32		8.1843e+17
    5.33		8.2188e+17
    5.34		8.2533e+17
    5.35		8.2876e+17
    5.36		8.3219e+17
    5.37		8.3560e+17
    5.38		8.3901e+17
    5.39		8.4241e+17
    5.40		8.4579e+17
    5.41		8.4917e+17
    5.42		8.5254e+17
    5.43		8.5589e+17
    5.44		8.5923e+17
    5.45		8.6257e+17
    5.46		8.6588e+17
    5.47		8.6919e+17
    5.48		8.7248e+17
    5.49		8.7576e+17
    5.50		8.7903e+17
    5.51		8.8228e+17
    5.52		8.8551e+17
    5.53		8.8874e+17
    5.54		8.9194e+17
    5.55		8.9513e+17
    5.56		8.9831e+17
    5.57		9.0147e+17
    5.58		9.0461e+17
    5.59		9.0774e+17
    5.60		9.1085e+17
    5.61		9.1394e+17
    5.62		9.1702e+17
    5.63		9.2008e+17
    5.64		9.2312e+17
    5.65		9.2614e+17
    5.66		9.2915e+17
    5.67		9.3214e+17
    5.68		9.3511e+17
    5.69		9.3806e+17
    5.70		9.4099e+17
    5.71		9.4390e+17
    5.72		9.4679e+17
    5.73		9.4967e+17
    5.74		9.5252e+17
    5.75		9.5536e+17
    5.76		9.5817e+17
    5.77		9.6097e+17
    5.78		9.6375e+17
    5.79		9.6651e+17
    5.80		9.6924e+17
    5.81		9.7196e+17
    5.82		9.7466e+17
    5.83		9.7734e+17
    5.84		9.8000e+17
    5.85		9.8264e+17
    5.86		9.8526e+17
    5.87		9.8786e+17
    5.88		9.9044e+17
    5.89		9.9300e+17
    5.90		9.9554e+17
    5.91		9.9806e+17
    5.92		1.0006e+18
    5.93		1.0030e+18
    5.94		1.0055e+18
    5.95		1.0080e+18
    5.96		1.0104e+18
    5.97		1.0128e+18
    5.98		1.0152e+18
    5.99		1.0176e+18
    6.00		1.0199e+18
    6.01		1.0222e+18
    6.02		1.0246e+18
    6.03		1.0269e+18
    6.04		1.0292e+18
    6.05		1.0314e+18
    6.06		1.0337e+18
    6.07		1.0359e+18
    6.08		1.0382e+18
    6.09		1.0404e+18
    6.10		1.0426e+18
    6.11		1.0448e+18
    6.12		1.0469e+18
    6.13		1.0491e+18
    6.14		1.0512e+18
    6.15		1.0534e+18
    6.16		1.0555e+18
    6.17		1.0576e+18
    6.18		1.0597e+18
    6.19		1.0618e+18
    6.20		1.0639e+18
    6.21		1.0659e+18
    6.22		1.0680e+18
    6.23		1.0701e+18
    6.24		1.0721e+18
    6.25		1.0741e+18
    6.26		1.0762e+18
    6.27		1.0782e+18
    6.28		1.0802e+18
    6.29		1.0823e+18
    6.30		1.0843e+18
    6.31		1.0863e+18
    6.32		1.0883e+18
    6.33		1.0903e+18
    6.34		1.0923e+18
    6.35		1.0943e+18
    6.36		1.0964e+18
    6.37		1.0984e+18
    6.38		1.1004e+18
    6.39		1.1024e+18
    6.40		1.1044e+18
    6.41		1.1064e+18
    6.42		1.1084e+18
    6.43		1.1105e+18
    6.44		1.1125e+18
    6.45		1.1145e+18
    6.46		1.1166e+18
    6.47		1.1186e+18
    6.48		1.1207e+18
    6.49		1.1227e+18
    6.50		1.1248e+18
    6.51		1.1269e+18
    6.52		1.1290e+18
    6.53		1.1310e+18
    6.54		1.1332e+18
    6.55		1.1353e+18
    6.56		1.1374e+18
    6.57		1.1395e+18
    6.58		1.1417e+18
    6.59		1.1439e+18
    6.60		1.1460e+18
    6.61		1.1482e+18
    6.62		1.1504e+18
    6.63		1.1526e+18
    6.64		1.1549e+18
    6.65		1.1571e+18
    6.66		1.1594e+18
    6.67		1.1617e+18
    6.68		1.1640e+18
    6.69		1.1663e+18
    6.70		1.1686e+18
    6.71		1.1710e+18
    6.72		1.1733e+18
    6.73		1.1757e+18
    6.74		1.1781e+18
    6.75		1.1806e+18
    6.76		1.1830e+18
    6.77		1.1855e+18
    6.78		1.1880e+18
    6.79		1.1905e+18
    6.80		1.1930e+18
    6.81		1.1956e+18
    6.82		1.1982e+18
    6.83		1.2008e+18
    6.84		1.2034e+18
    6.85		1.2060e+18
    6.86		1.2087e+18
    6.87		1.2114e+18
    6.88		1.2141e+18
    6.89		1.2168e+18
    6.90		1.2196e+18
    6.91		1.2224e+18
    6.92		1.2252e+18
    6.93		1.2280e+18
    6.94		1.2308e+18
    6.95		1.2337e+18
    6.96		1.2366e+18
    6.97		1.2395e+18
    6.98		1.2424e+18
    6.99		1.2454e+18
    7.00		1.2484e+18
    7.01		1.2514e+18
    7.02		1.2544e+18
    7.03		1.2575e+18
    7.04		1.2605e+18
    7.05		1.2636e+18
    7.06		1.2668e+18
    7.07		1.2699e+18
    7.08		1.2731e+18
    7.09		1.2763e+18
    7.10		1.2795e+18
    7.11		1.2827e+18
    7.12		1.2859e+18
    7.13		1.2892e+18
    7.14		1.2925e+18
    7.15		1.2958e+18
    7.16		1.2992e+18
    7.17		1.3025e+18
    7.18		1.3059e+18
    7.19		1.3093e+18
    7.20		1.3127e+18
    7.21		1.3162e+18
    7.22		1.3196e+18
    7.23		1.3231e+18
    7.24		1.3266e+18
    7.25		1.3302e+18
    7.26		1.3337e+18
    7.27		1.3373e+18
    7.28		1.3408e+18
    7.29		1.3445e+18
    7.30		1.3481e+18
    7.31		1.3517e+18
    7.32		1.3554e+18
    7.33		1.3591e+18
    7.34		1.3628e+18
    7.35		1.3665e+18
    7.36		1.3702e+18
    7.37		1.3740e+18
    7.38		1.3777e+18
    7.39		1.3815e+18
    7.40		1.3853e+18
    7.41		1.3892e+18
    7.42		1.3930e+18
    7.43		1.3969e+18
    7.44		1.4007e+18
    7.45		1.4046e+18
    7.46		1.4085e+18
    7.47		1.4124e+18
    7.48		1.4164e+18
    7.49		1.4203e+18
    7.50		1.4243e+18
    7.51		1.4283e+18
    7.52		1.4322e+18
    7.53		1.4362e+18
    7.54		1.4402e+18
    7.55		1.4443e+18
    7.56		1.4483e+18
    7.57		1.4523e+18
    7.58		1.4564e+18
    7.59		1.4605e+18
    7.60		1.4645e+18
    7.61		1.4686e+18
    7.62		1.4727e+18
    7.63		1.4768e+18
    7.64		1.4809e+18
    7.65		1.4850e+18
    7.66		1.4891e+18
    7.67		1.4932e+18
    7.68		1.4973e+18
    7.69		1.5014e+18
    7.70		1.5056e+18
    7.71		1.5097e+18
    7.72		1.5138e+18
    7.73		1.5179e+18
    7.74		1.5221e+18
    7.75		1.5262e+18
    7.76		1.5303e+18
    7.77		1.5344e+18
    7.78		1.5385e+18
    7.79		1.5427e+18
    7.80		1.5468e+18
    7.81		1.5509e+18
    7.82		1.5550e+18
    7.83		1.5590e+18
    7.84		1.5631e+18
    7.85		1.5672e+18
    7.86		1.5712e+18
    7.87		1.5753e+18
    7.88		1.5793e+18
    7.89		1.5833e+18
    7.90		1.5873e+18
    7.91		1.5913e+18
    7.92		1.5953e+18
    7.93		1.5992e+18
    7.94		1.6031e+18
    7.95		1.6071e+18
    7.96		1.6110e+18
    7.97		1.6148e+18
    7.98		1.6187e+18
    7.99		1.6225e+18
    8.00		1.6263e+18
    8.01		1.6301e+18
    8.02		1.6339e+18
    8.03		1.6376e+18
    8.04		1.6413e+18
    8.05		1.6450e+18
    8.06		1.6487e+18
    8.07		1.6523e+18
    8.08		1.6559e+18
    8.09		1.6595e+18
    8.10		1.6630e+18
    8.11		1.6665e+18
    8.12		1.6700e+18
    8.13		1.6734e+18
    8.14		1.6769e+18
    8.15		1.6802e+18
    8.16		1.6836e+18
    8.17		1.6869e+18
    8.18		1.6902e+18
    8.19		1.6934e+18
    8.20		1.6967e+18
    8.21		1.6998e+18
    8.22		1.7030e+18
    8.23		1.7061e+18
    8.24		1.7092e+18
    8.25		1.7122e+18
    8.26		1.7152e+18
    8.27		1.7181e+18
    8.28		1.7211e+18
    8.29		1.7240e+18
    8.30		1.7268e+18
    8.31		1.7296e+18
    8.32		1.7324e+18
    8.33		1.7351e+18
    8.34		1.7378e+18
    8.35		1.7404e+18
    8.36		1.7430e+18
    8.37		1.7456e+18
    8.38		1.7481e+18
    8.39		1.7506e+18
    8.40		1.7530e+18
    8.41		1.7554e+18
    8.42		1.7577e+18
    8.43		1.7600e+18
    8.44		1.7623e+18
    8.45		1.7645e+18
    8.46		1.7667e+18
    8.47		1.7688e+18
    8.48		1.7709e+18
    8.49		1.7729e+18
    8.50		1.7749e+18
    8.51		1.7769e+18
    8.52		1.7788e+18
    8.53		1.7806e+18
    8.54		1.7825e+18
    8.55		1.7842e+18
    8.56		1.7860e+18
    8.57		1.7876e+18
    8.58		1.7893e+18
    8.59		1.7909e+18
    8.60		1.7924e+18
    8.61		1.7939e+18
    8.62		1.7954e+18
    8.63		1.7968e+18
    8.64		1.7982e+18
    8.65		1.7995e+18
    8.66		1.8008e+18
    8.67		1.8021e+18
    8.68		1.8033e+18
    8.69		1.8044e+18
    8.70		1.8056e+18
    8.71		1.8066e+18
    8.72		1.8077e+18
    8.73		1.8087e+18
    8.74		1.8096e+18
    8.75		1.8106e+18
    8.76		1.8114e+18
    8.77		1.8123e+18
    8.78		1.8131e+18
    8.79		1.8139e+18
    8.80		1.8146e+18
    8.81		1.8153e+18
    8.82		1.8159e+18
    8.83		1.8166e+18
    8.84		1.8171e+18
    8.85		1.8177e+18
    8.86		1.8182e+18
    8.87		1.8187e+18
    8.88		1.8191e+18
    8.89		1.8195e+18
    8.90		1.8199e+18
    8.91		1.8202e+18
    8.92		1.8205e+18
    8.93		1.8208e+18
    8.94		1.8211e+18
    8.95		1.8213e+18
    8.96		1.8214e+18
    8.97		1.8216e+18
    8.98		1.8217e+18
    8.99		1.8218e+18
    9.00		1.8219e+18
    9.01		1.8219e+18
    9.02		1.8219e+18
    9.03		1.8218e+18
    9.04		1.8218e+18
    9.05		1.8217e+18
    9.06		1.8216e+18
    9.07		1.8215e+18
    9.08		1.8213e+18
    9.09		1.8211e+18
    9.10		1.8209e+18
    9.11		1.8206e+18
    9.12		1.8204e+18
    9.13		1.8201e+18
    9.14		1.8198e+18
    9.15		1.8195e+18
    9.16		1.8191e+18
    9.17		1.8187e+18
    9.18		1.8183e+18
    9.19		1.8179e+18
    9.20		1.8175e+18
    9.21		1.8171e+18
    9.22		1.8166e+18
    9.23		1.8161e+18
    9.24		1.8156e+18
    9.25		1.8151e+18
    9.26		1.8146e+18
    9.27		1.8141e+18
    9.28		1.8135e+18
    9.29		1.8130e+18
    9.30		1.8124e+18
    9.31		1.8118e+18
    9.32		1.8112e+18
    9.33		1.8107e+18
    9.34		1.8101e+18
    9.35		1.8095e+18
    9.36		1.8088e+18
    9.37		1.8082e+18
    9.38		1.8076e+18
    9.39		1.8070e+18
    9.40		1.8064e+18
    9.41		1.8057e+18
    9.42		1.8051e+18
    9.43		1.8045e+18
    9.44		1.8039e+18
    9.45		1.8033e+18
    9.46		1.8026e+18
    9.47		1.8020e+18
    9.48		1.8014e+18
    9.49		1.8008e+18
