dt: 0.01
Time[s]     Moment_Rate [Nm]
    0.00		0.0000e+00
    0.01		1.3967e+10
    0.02		6.9833e+10
    0.03		1.9553e+11
    0.04		4.1899e+11
    0.05		7.6814e+11
    0.06		1.2709e+12
    0.07		1.9552e+12
    0.08		2.8490e+12
    0.09		3.9802e+12
    0.10		5.3766e+12
    0.11		7.0663e+12
    0.12		9.0771e+12
    0.13		1.1437e+13
    0.14		1.4174e+13
    0.15		1.7315e+13
    0.16		2.0889e+13
    0.17		2.4924e+13
    0.18		2.9447e+13
    0.19		3.4486e+13
    0.20		4.0069e+13
    0.21		4.6225e+13
    0.22		5.2980e+13
    0.23		6.0362e+13
    0.24		6.8400e+13
    0.25		7.7122e+13
    0.26		8.6554e+13
    0.27		9.6724e+13
    0.28		1.0766e+14
    0.29		1.1939e+14
    0.30		1.3195e+14
    0.31		1.4535e+14
    0.32		1.5963e+14
    0.33		1.7482e+14
    0.34		1.9093e+14
    0.35		2.0801e+14
    0.36		2.2608e+14
    0.37		2.4516e+14
    0.38		2.6529e+14
    0.39		2.8648e+14
    0.40		3.0878e+14
    0.41		3.3220e+14
    0.42		3.5677e+14
    0.43		3.8252e+14
    0.44		4.0949e+14
    0.45		4.3769e+14
    0.46		4.6715e+14
    0.47		4.9790e+14
    0.48		5.2997e+14
    0.49		5.6339e+14
    0.50		5.9818e+14
    0.51		6.3437e+14
    0.52		6.7198e+14
    0.53		7.1105e+14
    0.54		7.5161e+14
    0.55		7.9367e+14
    0.56		8.3727e+14
    0.57		8.8243e+14
    0.58		9.2918e+14
    0.59		9.7756e+14
    0.60		1.0276e+15
    0.61		1.0793e+15
    0.62		1.1326e+15
    0.63		1.1878e+15
    0.64		1.2446e+15
    0.65		1.3033e+15
    0.66		1.3637e+15
    0.67		1.4260e+15
    0.68		1.4902e+15
    0.69		1.5562e+15
    0.70		1.6241e+15
    0.71		1.6940e+15
    0.72		1.7659e+15
    0.73		1.8397e+15
    0.74		1.9156e+15
    0.75		1.9935e+15
    0.76		2.0735e+15
    0.77		2.1556e+15
    0.78		2.2398e+15
    0.79		2.3262e+15
    0.80		2.4147e+15
    0.81		2.5055e+15
    0.82		2.5985e+15
    0.83		2.6937e+15
    0.84		2.7913e+15
    0.85		2.8911e+15
    0.86		2.9933e+15
    0.87		3.0979e+15
    0.88		3.2048e+15
    0.89		3.3142e+15
    0.90		3.4260e+15
    0.91		3.5402e+15
    0.92		3.6570e+15
    0.93		3.7763e+15
    0.94		3.8981e+15
    0.95		4.0225e+15
    0.96		4.1495e+15
    0.97		4.2791e+15
    0.98		4.4113e+15
    0.99		4.5463e+15
    1.00		4.6839e+15
    1.01		4.8243e+15
    1.02		4.9674e+15
    1.03		5.1133e+15
    1.04		5.2620e+15
    1.05		5.4135e+15
    1.06		5.5678e+15
    1.07		5.7251e+15
    1.08		5.8852e+15
    1.09		6.0483e+15
    1.10		6.2143e+15
    1.11		6.3833e+15
    1.12		6.5553e+15
    1.13		6.7304e+15
    1.14		6.9085e+15
    1.15		7.0896e+15
    1.16		7.2739e+15
    1.17		7.4613e+15
    1.18		7.6518e+15
    1.19		7.8456e+15
    1.20		8.0425e+15
    1.21		8.2426e+15
    1.22		8.4460e+15
    1.23		8.6527e+15
    1.24		8.8626e+15
    1.25		9.0759e+15
    1.26		9.2926e+15
    1.27		9.5126e+15
    1.28		9.7360e+15
    1.29		9.9628e+15
    1.30		1.0193e+16
    1.31		1.0427e+16
    1.32		1.0664e+16
    1.33		1.0905e+16
    1.34		1.1149e+16
    1.35		1.1397e+16
    1.36		1.1648e+16
    1.37		1.1903e+16
    1.38		1.2162e+16
    1.39		1.2424e+16
    1.40		1.2690e+16
    1.41		1.2960e+16
    1.42		1.3233e+16
    1.43		1.3510e+16
    1.44		1.3791e+16
    1.45		1.4076e+16
    1.46		1.4365e+16
    1.47		1.4657e+16
    1.48		1.4953e+16
    1.49		1.5253e+16
    1.50		1.5558e+16
    1.51		1.5866e+16
    1.52		1.6177e+16
    1.53		1.6493e+16
    1.54		1.6813e+16
    1.55		1.7137e+16
    1.56		1.7465e+16
    1.57		1.7797e+16
    1.58		1.8133e+16
    1.59		1.8474e+16
    1.60		1.8818e+16
    1.61		1.9166e+16
    1.62		1.9519e+16
    1.63		1.9876e+16
    1.64		2.0237e+16
    1.65		2.0602e+16
    1.66		2.0972e+16
    1.67		2.1346e+16
    1.68		2.1724e+16
    1.69		2.2107e+16
    1.70		2.2493e+16
    1.71		2.2885e+16
    1.72		2.3280e+16
    1.73		2.3680e+16
    1.74		2.4085e+16
    1.75		2.4494e+16
    1.76		2.4907e+16
    1.77		2.5325e+16
    1.78		2.5747e+16
    1.79		2.6174e+16
    1.80		2.6606e+16
    1.81		2.7042e+16
    1.82		2.7483e+16
    1.83		2.7928e+16
    1.84		2.8378e+16
    1.85		2.8832e+16
    1.86		2.9291e+16
    1.87		2.9755e+16
    1.88		3.0224e+16
    1.89		3.0697e+16
    1.90		3.1176e+16
    1.91		3.1659e+16
    1.92		3.2146e+16
    1.93		3.2639e+16
    1.94		3.3136e+16
    1.95		3.3638e+16
    1.96		3.4145e+16
    1.97		3.4657e+16
    1.98		3.5174e+16
    1.99		3.5696e+16
    2.00		3.6223e+16
    2.01		3.6755e+16
    2.02		3.7292e+16
    2.03		3.7836e+16
    2.04		3.8386e+16
    2.05		3.8944e+16
    2.06		3.9509e+16
    2.07		4.0082e+16
    2.08		4.0664e+16
    2.09		4.1255e+16
    2.10		4.1855e+16
    2.11		4.2465e+16
    2.12		4.3086e+16
    2.13		4.3717e+16
    2.14		4.4360e+16
    2.15		4.5015e+16
    2.16		4.5682e+16
    2.17		4.6362e+16
    2.18		4.7055e+16
    2.19		4.7762e+16
    2.20		4.8483e+16
    2.21		4.9220e+16
    2.22		4.9977e+16
    2.23		5.0756e+16
    2.24		5.1561e+16
    2.25		5.2395e+16
    2.26		5.3262e+16
    2.27		5.4163e+16
    2.28		5.5104e+16
    2.29		5.6087e+16
    2.30		5.7114e+16
    2.31		5.8190e+16
    2.32		5.9318e+16
    2.33		6.0500e+16
    2.34		6.1740e+16
    2.35		6.3041e+16
    2.36		6.4406e+16
    2.37		6.5839e+16
    2.38		6.7341e+16
    2.39		6.8917e+16
    2.40		7.0569e+16
    2.41		7.2300e+16
    2.42		7.4114e+16
    2.43		7.6013e+16
    2.44		7.8000e+16
    2.45		8.0079e+16
    2.46		8.2251e+16
    2.47		8.4520e+16
    2.48		8.6889e+16
    2.49		8.9360e+16
    2.50		9.1936e+16
    2.51		9.4620e+16
    2.52		9.7415e+16
    2.53		1.0032e+17
    2.54		1.0335e+17
    2.55		1.0649e+17
    2.56		1.0975e+17
    2.57		1.1314e+17
    2.58		1.1665e+17
    2.59		1.2030e+17
    2.60		1.2407e+17
    2.61		1.2797e+17
    2.62		1.3201e+17
    2.63		1.3619e+17
    2.64		1.4051e+17
    2.65		1.4497e+17
    2.66		1.4958e+17
    2.67		1.5433e+17
    2.68		1.5923e+17
    2.69		1.6428e+17
    2.70		1.6948e+17
    2.71		1.7484e+17
    2.72		1.8035e+17
    2.73		1.8602e+17
    2.74		1.9185e+17
    2.75		1.9784e+17
    2.76		2.0400e+17
    2.77		2.1032e+17
    2.78		2.1680e+17
    2.79		2.2346e+17
    2.80		2.3028e+17
    2.81		2.3727e+17
    2.82		2.4443e+17
    2.83		2.5177e+17
    2.84		2.5928e+17
    2.85		2.6697e+17
    2.86		2.7483e+17
    2.87		2.8287e+17
    2.88		2.9109e+17
    2.89		2.9949e+17
    2.90		3.0807e+17
    2.91		3.1683e+17
    2.92		3.2577e+17
    2.93		3.3490e+17
    2.94		3.4421e+17
    2.95		3.5370e+17
    2.96		3.6338e+17
    2.97		3.7325e+17
    2.98		3.8330e+17
    2.99		3.9353e+17
    3.00		4.0396e+17
    3.01		4.1457e+17
    3.02		4.2536e+17
    3.03		4.3635e+17
    3.04		4.4753e+17
    3.05		4.5890e+17
    3.06		4.7046e+17
    3.07		4.8222e+17
    3.08		4.9419e+17
    3.09		5.0635e+17
    3.10		5.1872e+17
    3.11		5.3130e+17
    3.12		5.4408e+17
    3.13		5.5708e+17
    3.14		5.7028e+17
    3.15		5.8370e+17
    3.16		5.9734e+17
    3.17		6.1119e+17
    3.18		6.2526e+17
    3.19		6.3956e+17
    3.20		6.5407e+17
    3.21		6.6880e+17
    3.22		6.8376e+17
    3.23		6.9895e+17
    3.24		7.1436e+17
    3.25		7.3000e+17
    3.26		7.4587e+17
    3.27		7.6197e+17
    3.28		7.7830e+17
    3.29		7.9486e+17
    3.30		8.1165e+17
    3.31		8.2868e+17
    3.32		8.4594e+17
    3.33		8.6344e+17
    3.34		8.8116e+17
    3.35		8.9913e+17
    3.36		9.1733e+17
    3.37		9.3577e+17
    3.38		9.5444e+17
    3.39		9.7335e+17
    3.40		9.9249e+17
    3.41		1.0119e+18
    3.42		1.0315e+18
    3.43		1.0513e+18
    3.44		1.0714e+18
    3.45		1.0918e+18
    3.46		1.1123e+18
    3.47		1.1331e+18
    3.48		1.1541e+18
    3.49		1.1754e+18
    3.50		1.1969e+18
    3.51		1.2186e+18
    3.52		1.2406e+18
    3.53		1.2628e+18
    3.54		1.2852e+18
    3.55		1.3078e+18
    3.56		1.3307e+18
    3.57		1.3538e+18
    3.58		1.3771e+18
    3.59		1.4007e+18
    3.60		1.4245e+18
    3.61		1.4485e+18
    3.62		1.4727e+18
    3.63		1.4971e+18
    3.64		1.5218e+18
    3.65		1.5466e+18
    3.66		1.5717e+18
    3.67		1.5970e+18
    3.68		1.6225e+18
    3.69		1.6482e+18
    3.70		1.6741e+18
    3.71		1.7002e+18
    3.72		1.7265e+18
    3.73		1.7530e+18
    3.74		1.7797e+18
    3.75		1.8066e+18
    3.76		1.8337e+18
    3.77		1.8610e+18
    3.78		1.8885e+18
    3.79		1.9162e+18
    3.80		1.9440e+18
    3.81		1.9720e+18
    3.82		2.0002e+18
    3.83		2.0286e+18
    3.84		2.0571e+18
    3.85		2.0859e+18
    3.86		2.1147e+18
    3.87		2.1438e+18
    3.88		2.1730e+18
    3.89		2.2024e+18
    3.90		2.2319e+18
    3.91		2.2615e+18
    3.92		2.2914e+18
    3.93		2.3213e+18
    3.94		2.3514e+18
    3.95		2.3817e+18
    3.96		2.4121e+18
    3.97		2.4426e+18
    3.98		2.4733e+18
    3.99		2.5040e+18
    4.00		2.5349e+18
    4.01		2.5660e+18
    4.02		2.5971e+18
    4.03		2.6284e+18
    4.04		2.6597e+18
    4.05		2.6912e+18
    4.06		2.7228e+18
    4.07		2.7544e+18
    4.08		2.7862e+18
    4.09		2.8180e+18
    4.10		2.8500e+18
    4.11		2.8820e+18
    4.12		2.9141e+18
    4.13		2.9463e+18
    4.14		2.9785e+18
    4.15		3.0108e+18
    4.16		3.0432e+18
    4.17		3.0757e+18
    4.18		3.1082e+18
    4.19		3.1407e+18
    4.20		3.1733e+18
    4.21		3.2059e+18
    4.22		3.2386e+18
    4.23		3.2713e+18
    4.24		3.3040e+18
    4.25		3.3368e+18
    4.26		3.3695e+18
    4.27		3.4023e+18
    4.28		3.4350e+18
    4.29		3.4678e+18
    4.30		3.5005e+18
    4.31		3.5332e+18
    4.32		3.5659e+18
    4.33		3.5985e+18
    4.34		3.6311e+18
    4.35		3.6636e+18
    4.36		3.6961e+18
    4.37		3.7286e+18
    4.38		3.7609e+18
    4.39		3.7932e+18
    4.40		3.8255e+18
    4.41		3.8576e+18
    4.42		3.8896e+18
    4.43		3.9216e+18
    4.44		3.9534e+18
    4.45		3.9852e+18
    4.46		4.0168e+18
    4.47		4.0483e+18
    4.48		4.0797e+18
    4.49		4.1110e+18
    4.50		4.1421e+18
    4.51		4.1731e+18
    4.52		4.2039e+18
    4.53		4.2346e+18
    4.54		4.2652e+18
    4.55		4.2956e+18
    4.56		4.3259e+18
    4.57		4.3560e+18
    4.58		4.3859e+18
    4.59		4.4157e+18
    4.60		4.4453e+18
    4.61		4.4747e+18
    4.62		4.5040e+18
    4.63		4.5330e+18
    4.64		4.5619e+18
    4.65		4.5906e+18
    4.66		4.6192e+18
    4.67		4.6475e+18
    4.68		4.6756e+18
    4.69		4.7036e+18
    4.70		4.7313e+18
    4.71		4.7588e+18
    4.72		4.7862e+18
    4.73		4.8133e+18
    4.74		4.8402e+18
    4.75		4.8670e+18
    4.76		4.8935e+18
    4.77		4.9198e+18
    4.78		4.9458e+18
    4.79		4.9717e+18
    4.80		4.9974e+18
    4.81		5.0228e+18
    4.82		5.0480e+18
    4.83		5.0730e+18
    4.84		5.0978e+18
    4.85		5.1224e+18
    4.86		5.1467e+18
    4.87		5.1708e+18
    4.88		5.1947e+18
    4.89		5.2184e+18
    4.90		5.2418e+18
    4.91		5.2650e+18
    4.92		5.2880e+18
    4.93		5.3108e+18
    4.94		5.3334e+18
    4.95		5.3557e+18
    4.96		5.3778e+18
    4.97		5.3997e+18
    4.98		5.4213e+18
    4.99		5.4428e+18
    5.00		5.4640e+18
    5.01		5.4850e+18
    5.02		5.5058e+18
    5.03		5.5264e+18
    5.04		5.5467e+18
    5.05		5.5668e+18
    5.06		5.5867e+18
    5.07		5.6063e+18
    5.08		5.6257e+18
    5.09		5.6449e+18
    5.10		5.6639e+18
    5.11		5.6826e+18
    5.12		5.7010e+18
    5.13		5.7192e+18
    5.14		5.7372e+18
    5.15		5.7550e+18
    5.16		5.7724e+18
    5.17		5.7897e+18
    5.18		5.8067e+18
    5.19		5.8234e+18
    5.20		5.8399e+18
    5.21		5.8562e+18
    5.22		5.8722e+18
    5.23		5.8879e+18
    5.24		5.9034e+18
    5.25		5.9186e+18
    5.26		5.9335e+18
    5.27		5.9482e+18
    5.28		5.9626e+18
    5.29		5.9767e+18
    5.30		5.9905e+18
    5.31		6.0041e+18
    5.32		6.0173e+18
    5.33		6.0303e+18
    5.34		6.0430e+18
    5.35		6.0553e+18
    5.36		6.0674e+18
    5.37		6.0792e+18
    5.38		6.0907e+18
    5.39		6.1019e+18
    5.40		6.1127e+18
    5.41		6.1233e+18
    5.42		6.1336e+18
    5.43		6.1435e+18
    5.44		6.1532e+18
    5.45		6.1625e+18
    5.46		6.1715e+18
    5.47		6.1802e+18
    5.48		6.1886e+18
    5.49		6.1967e+18
    5.50		6.2045e+18
    5.51		6.2119e+18
    5.52		6.2191e+18
    5.53		6.2259e+18
    5.54		6.2325e+18
    5.55		6.2387e+18
    5.56		6.2446e+18
    5.57		6.2502e+18
    5.58		6.2555e+18
    5.59		6.2605e+18
    5.60		6.2652e+18
    5.61		6.2695e+18
    5.62		6.2736e+18
    5.63		6.2774e+18
    5.64		6.2809e+18
    5.65		6.2841e+18
    5.66		6.2870e+18
    5.67		6.2896e+18
    5.68		6.2920e+18
    5.69		6.2940e+18
    5.70		6.2958e+18
    5.71		6.2973e+18
    5.72		6.2986e+18
    5.73		6.2995e+18
    5.74		6.3003e+18
    5.75		6.3007e+18
    5.76		6.3010e+18
    5.77		6.3009e+18
    5.78		6.3007e+18
    5.79		6.3002e+18
    5.80		6.2995e+18
    5.81		6.2985e+18
    5.82		6.2974e+18
    5.83		6.2960e+18
    5.84		6.2944e+18
    5.85		6.2927e+18
    5.86		6.2907e+18
    5.87		6.2885e+18
    5.88		6.2862e+18
    5.89		6.2837e+18
    5.90		6.2810e+18
    5.91		6.2782e+18
    5.92		6.2752e+18
    5.93		6.2721e+18
    5.94		6.2688e+18
    5.95		6.2654e+18
    5.96		6.2619e+18
    5.97		6.2582e+18
    5.98		6.2545e+18
    5.99		6.2506e+18
    6.00		6.2467e+18
    6.01		6.2426e+18
    6.02		6.2385e+18
    6.03		6.2343e+18
    6.04		6.2300e+18
    6.05		6.2257e+18
    6.06		6.2213e+18
    6.07		6.2169e+18
    6.08		6.2125e+18
    6.09		6.2080e+18
    6.10		6.2034e+18
    6.11		6.1989e+18
    6.12		6.1943e+18
    6.13		6.1898e+18
    6.14		6.1852e+18
    6.15		6.1806e+18
    6.16		6.1761e+18
    6.17		6.1715e+18
    6.18		6.1670e+18
    6.19		6.1625e+18
    6.20		6.1581e+18
    6.21		6.1537e+18
    6.22		6.1493e+18
    6.23		6.1450e+18
    6.24		6.1408e+18
    6.25		6.1367e+18
    6.26		6.1326e+18
    6.27		6.1286e+18
    6.28		6.1247e+18
    6.29		6.1209e+18
    6.30		6.1171e+18
    6.31		6.1135e+18
    6.32		6.1101e+18
    6.33		6.1067e+18
    6.34		6.1035e+18
    6.35		6.1004e+18
    6.36		6.0974e+18
    6.37		6.0946e+18
    6.38		6.0920e+18
    6.39		6.0895e+18
    6.40		6.0872e+18
    6.41		6.0850e+18
    6.42		6.0831e+18
    6.43		6.0813e+18
    6.44		6.0798e+18
    6.45		6.0784e+18
    6.46		6.0772e+18
    6.47		6.0763e+18
    6.48		6.0755e+18
    6.49		6.0750e+18
    6.50		6.0748e+18
    6.51		6.0747e+18
    6.52		6.0749e+18
    6.53		6.0754e+18
    6.54		6.0761e+18
    6.55		6.0770e+18
    6.56		6.0782e+18
    6.57		6.0796e+18
    6.58		6.0813e+18
    6.59		6.0833e+18
    6.60		6.0855e+18
    6.61		6.0880e+18
    6.62		6.0907e+18
    6.63		6.0937e+18
    6.64		6.0971e+18
    6.65		6.1006e+18
    6.66		6.1045e+18
    6.67		6.1086e+18
    6.68		6.1131e+18
    6.69		6.1178e+18
    6.70		6.1228e+18
    6.71		6.1281e+18
    6.72		6.1337e+18
    6.73		6.1396e+18
    6.74		6.1458e+18
    6.75		6.1523e+18
    6.76		6.1591e+18
    6.77		6.1662e+18
    6.78		6.1736e+18
    6.79		6.1813e+18
    6.80		6.1893e+18
    6.81		6.1976e+18
    6.82		6.2062e+18
    6.83		6.2151e+18
    6.84		6.2243e+18
    6.85		6.2338e+18
    6.86		6.2437e+18
    6.87		6.2538e+18
    6.88		6.2642e+18
    6.89		6.2749e+18
    6.90		6.2859e+18
    6.91		6.2973e+18
    6.92		6.3089e+18
    6.93		6.3208e+18
    6.94		6.3331e+18
    6.95		6.3456e+18
    6.96		6.3585e+18
    6.97		6.3716e+18
    6.98		6.3851e+18
    6.99		6.3988e+18
    7.00		6.4129e+18
    7.01		6.4273e+18
    7.02		6.4419e+18
    7.03		6.4569e+18
    7.04		6.4721e+18
    7.05		6.4877e+18
    7.06		6.5036e+18
    7.07		6.5198e+18
    7.08		6.5362e+18
    7.09		6.5530e+18
    7.10		6.5701e+18
    7.11		6.5875e+18
    7.12		6.6052e+18
    7.13		6.6232e+18
    7.14		6.6415e+18
    7.15		6.6601e+18
    7.16		6.6790e+18
    7.17		6.6982e+18
    7.18		6.7178e+18
    7.19		6.7376e+18
    7.20		6.7577e+18
    7.21		6.7781e+18
    7.22		6.7988e+18
    7.23		6.8199e+18
    7.24		6.8412e+18
    7.25		6.8629e+18
    7.26		6.8849e+18
    7.27		6.9072e+18
    7.28		6.9298e+18
    7.29		6.9528e+18
    7.30		6.9761e+18
    7.31		6.9997e+18
    7.32		7.0236e+18
    7.33		7.0479e+18
    7.34		7.0725e+18
    7.35		7.0975e+18
    7.36		7.1228e+18
    7.37		7.1484e+18
    7.38		7.1744e+18
    7.39		7.2007e+18
    7.40		7.2274e+18
    7.41		7.2544e+18
    7.42		7.2817e+18
    7.43		7.3095e+18
    7.44		7.3375e+18
    7.45		7.3660e+18
    7.46		7.3948e+18
    7.47		7.4239e+18
    7.48		7.4534e+18
    7.49		7.4833e+18
    7.50		7.5136e+18
    7.51		7.5442e+18
    7.52		7.5753e+18
    7.53		7.6066e+18
    7.54		7.6384e+18
    7.55		7.6705e+18
    7.56		7.7030e+18
    7.57		7.7359e+18
    7.58		7.7692e+18
    7.59		7.8028e+18
    7.60		7.8368e+18
    7.61		7.8712e+18
    7.62		7.9060e+18
    7.63		7.9412e+18
    7.64		7.9767e+18
    7.65		8.0126e+18
    7.66		8.0488e+18
    7.67		8.0855e+18
    7.68		8.1225e+18
    7.69		8.1599e+18
    7.70		8.1976e+18
    7.71		8.2358e+18
    7.72		8.2742e+18
    7.73		8.3131e+18
    7.74		8.3523e+18
    7.75		8.3918e+18
    7.76		8.4317e+18
    7.77		8.4720e+18
    7.78		8.5126e+18
    7.79		8.5535e+18
    7.80		8.5948e+18
    7.81		8.6364e+18
    7.82		8.6784e+18
    7.83		8.7207e+18
    7.84		8.7633e+18
    7.85		8.8062e+18
    7.86		8.8495e+18
    7.87		8.8930e+18
    7.88		8.9369e+18
    7.89		8.9811e+18
    7.90		9.0256e+18
    7.91		9.0704e+18
    7.92		9.1155e+18
    7.93		9.1609e+18
    7.94		9.2066e+18
    7.95		9.2525e+18
    7.96		9.2987e+18
    7.97		9.3453e+18
    7.98		9.3920e+18
    7.99		9.4391e+18
    8.00		9.4864e+18
    8.01		9.5339e+18
    8.02		9.5817e+18
    8.03		9.6297e+18
    8.04		9.6780e+18
    8.05		9.7265e+18
    8.06		9.7753e+18
    8.07		9.8242e+18
    8.08		9.8734e+18
    8.09		9.9229e+18
    8.10		9.9725e+18
    8.11		1.0022e+19
    8.12		1.0072e+19
    8.13		1.0123e+19
    8.14		1.0173e+19
    8.15		1.0224e+19
    8.16		1.0275e+19
    8.17		1.0326e+19
    8.18		1.0377e+19
    8.19		1.0428e+19
    8.20		1.0480e+19
    8.21		1.0532e+19
    8.22		1.0583e+19
    8.23		1.0636e+19
    8.24		1.0688e+19
    8.25		1.0740e+19
    8.26		1.0793e+19
    8.27		1.0845e+19
    8.28		1.0898e+19
    8.29		1.0951e+19
    8.30		1.1004e+19
    8.31		1.1057e+19
    8.32		1.1110e+19
    8.33		1.1164e+19
    8.34		1.1217e+19
    8.35		1.1271e+19
    8.36		1.1324e+19
    8.37		1.1378e+19
    8.38		1.1432e+19
    8.39		1.1486e+19
    8.40		1.1540e+19
    8.41		1.1594e+19
    8.42		1.1648e+19
    8.43		1.1702e+19
    8.44		1.1756e+19
    8.45		1.1811e+19
    8.46		1.1865e+19
    8.47		1.1919e+19
    8.48		1.1974e+19
    8.49		1.2028e+19
    8.50		1.2083e+19
    8.51		1.2137e+19
    8.52		1.2192e+19
    8.53		1.2246e+19
    8.54		1.2301e+19
    8.55		1.2355e+19
    8.56		1.2410e+19
    8.57		1.2464e+19
    8.58		1.2519e+19
    8.59		1.2573e+19
    8.60		1.2627e+19
    8.61		1.2682e+19
    8.62		1.2736e+19
    8.63		1.2791e+19
    8.64		1.2845e+19
    8.65		1.2899e+19
    8.66		1.2954e+19
    8.67		1.3008e+19
    8.68		1.3062e+19
    8.69		1.3117e+19
    8.70		1.3171e+19
    8.71		1.3225e+19
    8.72		1.3279e+19
    8.73		1.3333e+19
    8.74		1.3387e+19
    8.75		1.3441e+19
    8.76		1.3495e+19
    8.77		1.3548e+19
    8.78		1.3602e+19
    8.79		1.3656e+19
    8.80		1.3709e+19
    8.81		1.3763e+19
    8.82		1.3816e+19
    8.83		1.3870e+19
    8.84		1.3923e+19
    8.85		1.3976e+19
    8.86		1.4029e+19
    8.87		1.4082e+19
    8.88		1.4135e+19
    8.89		1.4188e+19
    8.90		1.4241e+19
    8.91		1.4294e+19
    8.92		1.4346e+19
    8.93		1.4399e+19
    8.94		1.4451e+19
    8.95		1.4504e+19
    8.96		1.4556e+19
    8.97		1.4608e+19
    8.98		1.4660e+19
    8.99		1.4712e+19
    9.00		1.4764e+19
    9.01		1.4816e+19
    9.02		1.4867e+19
    9.03		1.4919e+19
    9.04		1.4970e+19
    9.05		1.5021e+19
    9.06		1.5072e+19
    9.07		1.5123e+19
    9.08		1.5174e+19
    9.09		1.5225e+19
    9.10		1.5275e+19
    9.11		1.5326e+19
    9.12		1.5376e+19
    9.13		1.5426e+19
    9.14		1.5476e+19
    9.15		1.5526e+19
    9.16		1.5575e+19
    9.17		1.5625e+19
    9.18		1.5674e+19
    9.19		1.5723e+19
    9.20		1.5772e+19
    9.21		1.5821e+19
    9.22		1.5869e+19
    9.23		1.5917e+19
    9.24		1.5966e+19
    9.25		1.6013e+19
    9.26		1.6061e+19
    9.27		1.6109e+19
    9.28		1.6156e+19
    9.29		1.6203e+19
    9.30		1.6250e+19
    9.31		1.6296e+19
    9.32		1.6343e+19
    9.33		1.6389e+19
    9.34		1.6435e+19
    9.35		1.6480e+19
    9.36		1.6525e+19
    9.37		1.6570e+19
    9.38		1.6615e+19
    9.39		1.6660e+19
    9.40		1.6704e+19
    9.41		1.6748e+19
    9.42		1.6792e+19
    9.43		1.6835e+19
    9.44		1.6878e+19
    9.45		1.6921e+19
    9.46		1.6963e+19
    9.47		1.7005e+19
    9.48		1.7047e+19
    9.49		1.7088e+19
