dt: 0.01
Time[s]     Moment_Rate [Nm]
    0.00		0.0000e+00
    0.01		4.7444e+11
    0.02		2.3720e+12
    0.03		6.6407e+12
    0.04		1.4228e+13
    0.05		2.6078e+13
    0.06		4.3136e+13
    0.07		6.6343e+13
    0.08		9.6637e+13
    0.09		1.3495e+14
    0.10		1.8223e+14
    0.11		2.3938e+14
    0.12		3.0735e+14
    0.13		3.8703e+14
    0.14		4.7936e+14
    0.15		5.8524e+14
    0.16		7.0557e+14
    0.17		8.4125e+14
    0.18		9.9316e+14
    0.19		1.1622e+15
    0.20		1.3492e+15
    0.21		1.5551e+15
    0.22		1.7807e+15
    0.23		2.0269e+15
    0.24		2.2945e+15
    0.25		2.5843e+15
    0.26		2.8972e+15
    0.27		3.2339e+15
    0.28		3.5954e+15
    0.29		3.9823e+15
    0.30		4.3954e+15
    0.31		4.8356e+15
    0.32		5.3035e+15
    0.33		5.7999e+15
    0.34		6.3256e+15
    0.35		6.8813e+15
    0.36		7.4676e+15
    0.37		8.0852e+15
    0.38		8.7350e+15
    0.39		9.4174e+15
    0.40		1.0133e+16
    0.41		1.0883e+16
    0.42		1.1667e+16
    0.43		1.2487e+16
    0.44		1.3342e+16
    0.45		1.4234e+16
    0.46		1.5163e+16
    0.47		1.6129e+16
    0.48		1.7133e+16
    0.49		1.8175e+16
    0.50		1.9257e+16
    0.51		2.0378e+16
    0.52		2.1539e+16
    0.53		2.2741e+16
    0.54		2.3983e+16
    0.55		2.5266e+16
    0.56		2.6591e+16
    0.57		2.7958e+16
    0.58		2.9367e+16
    0.59		3.0819e+16
    0.60		3.2314e+16
    0.61		3.3852e+16
    0.62		3.5433e+16
    0.63		3.7059e+16
    0.64		3.8728e+16
    0.65		4.0441e+16
    0.66		4.2199e+16
    0.67		4.4002e+16
    0.68		4.5849e+16
    0.69		4.7741e+16
    0.70		4.9678e+16
    0.71		5.1661e+16
    0.72		5.3688e+16
    0.73		5.5761e+16
    0.74		5.7879e+16
    0.75		6.0042e+16
    0.76		6.2251e+16
    0.77		6.4504e+16
    0.78		6.6803e+16
    0.79		6.9148e+16
    0.80		7.1537e+16
    0.81		7.3972e+16
    0.82		7.6451e+16
    0.83		7.8975e+16
    0.84		8.1543e+16
    0.85		8.4156e+16
    0.86		8.6814e+16
    0.87		8.9515e+16
    0.88		9.2260e+16
    0.89		9.5049e+16
    0.90		9.7880e+16
    0.91		1.0075e+17
    0.92		1.0367e+17
    0.93		1.0663e+17
    0.94		1.0963e+17
    0.95		1.1268e+17
    0.96		1.1576e+17
    0.97		1.1889e+17
    0.98		1.2205e+17
    0.99		1.2526e+17
    1.00		1.2850e+17
    1.01		1.3179e+17
    1.02		1.3511e+17
    1.03		1.3847e+17
    1.04		1.4187e+17
    1.05		1.4530e+17
    1.06		1.4877e+17
    1.07		1.5228e+17
    1.08		1.5582e+17
    1.09		1.5940e+17
    1.10		1.6301e+17
    1.11		1.6665e+17
    1.12		1.7033e+17
    1.13		1.7404e+17
    1.14		1.7778e+17
    1.15		1.8155e+17
    1.16		1.8535e+17
    1.17		1.8918e+17
    1.18		1.9304e+17
    1.19		1.9693e+17
    1.20		2.0084e+17
    1.21		2.0478e+17
    1.22		2.0874e+17
    1.23		2.1273e+17
    1.24		2.1675e+17
    1.25		2.2078e+17
    1.26		2.2484e+17
    1.27		2.2892e+17
    1.28		2.3302e+17
    1.29		2.3714e+17
    1.30		2.4128e+17
    1.31		2.4544e+17
    1.32		2.4962e+17
    1.33		2.5381e+17
    1.34		2.5801e+17
    1.35		2.6223e+17
    1.36		2.6647e+17
    1.37		2.7072e+17
    1.38		2.7497e+17
    1.39		2.7924e+17
    1.40		2.8352e+17
    1.41		2.8781e+17
    1.42		2.9211e+17
    1.43		2.9641e+17
    1.44		3.0073e+17
    1.45		3.0505e+17
    1.46		3.0939e+17
    1.47		3.1374e+17
    1.48		3.1811e+17
    1.49		3.2249e+17
    1.50		3.2689e+17
    1.51		3.3131e+17
    1.52		3.3575e+17
    1.53		3.4021e+17
    1.54		3.4469e+17
    1.55		3.4920e+17
    1.56		3.5374e+17
    1.57		3.5830e+17
    1.58		3.6289e+17
    1.59		3.6751e+17
    1.60		3.7216e+17
    1.61		3.7684e+17
    1.62		3.8156e+17
    1.63		3.8631e+17
    1.64		3.9109e+17
    1.65		3.9591e+17
    1.66		4.0077e+17
    1.67		4.0567e+17
    1.68		4.1061e+17
    1.69		4.1559e+17
    1.70		4.2061e+17
    1.71		4.2567e+17
    1.72		4.3078e+17
    1.73		4.3594e+17
    1.74		4.4114e+17
    1.75		4.4639e+17
    1.76		4.5169e+17
    1.77		4.5703e+17
    1.78		4.6243e+17
    1.79		4.6788e+17
    1.80		4.7338e+17
    1.81		4.7893e+17
    1.82		4.8454e+17
    1.83		4.9020e+17
    1.84		4.9592e+17
    1.85		5.0169e+17
    1.86		5.0752e+17
    1.87		5.1341e+17
    1.88		5.1935e+17
    1.89		5.2536e+17
    1.90		5.3142e+17
    1.91		5.3755e+17
    1.92		5.4373e+17
    1.93		5.4998e+17
    1.94		5.5629e+17
    1.95		5.6266e+17
    1.96		5.6910e+17
    1.97		5.7559e+17
    1.98		5.8216e+17
    1.99		5.8878e+17
    2.00		5.9547e+17
    2.01		6.0223e+17
    2.02		6.0905e+17
    2.03		6.1594e+17
    2.04		6.2289e+17
    2.05		6.2992e+17
    2.06		6.3702e+17
    2.07		6.4418e+17
    2.08		6.5143e+17
    2.09		6.5874e+17
    2.10		6.6614e+17
    2.11		6.7361e+17
    2.12		6.8116e+17
    2.13		6.8879e+17
    2.14		6.9650e+17
    2.15		7.0430e+17
    2.16		7.1218e+17
    2.17		7.2014e+17
    2.18		7.2819e+17
    2.19		7.3633e+17
    2.20		7.4455e+17
    2.21		7.5287e+17
    2.22		7.6127e+17
    2.23		7.6977e+17
    2.24		7.7836e+17
    2.25		7.8704e+17
    2.26		7.9581e+17
    2.27		8.0468e+17
    2.28		8.1364e+17
    2.29		8.2270e+17
    2.30		8.3186e+17
    2.31		8.4111e+17
    2.32		8.5046e+17
    2.33		8.5991e+17
    2.34		8.6945e+17
    2.35		8.7909e+17
    2.36		8.8884e+17
    2.37		8.9868e+17
    2.38		9.0862e+17
    2.39		9.1867e+17
    2.40		9.2881e+17
    2.41		9.3905e+17
    2.42		9.4940e+17
    2.43		9.5984e+17
    2.44		9.7038e+17
    2.45		9.8103e+17
    2.46		9.9178e+17
    2.47		1.0026e+18
    2.48		1.0136e+18
    2.49		1.0246e+18
    2.50		1.0358e+18
    2.51		1.0470e+18
    2.52		1.0584e+18
    2.53		1.0698e+18
    2.54		1.0814e+18
    2.55		1.0930e+18
    2.56		1.1047e+18
    2.57		1.1166e+18
    2.58		1.1285e+18
    2.59		1.1405e+18
    2.60		1.1527e+18
    2.61		1.1649e+18
    2.62		1.1772e+18
    2.63		1.1896e+18
    2.64		1.2021e+18
    2.65		1.2147e+18
    2.66		1.2274e+18
    2.67		1.2402e+18
    2.68		1.2531e+18
    2.69		1.2660e+18
    2.70		1.2791e+18
    2.71		1.2922e+18
    2.72		1.3054e+18
    2.73		1.3187e+18
    2.74		1.3321e+18
    2.75		1.3456e+18
    2.76		1.3591e+18
    2.77		1.3727e+18
    2.78		1.3864e+18
    2.79		1.4002e+18
    2.80		1.4141e+18
    2.81		1.4280e+18
    2.82		1.4420e+18
    2.83		1.4561e+18
    2.84		1.4703e+18
    2.85		1.4845e+18
    2.86		1.4987e+18
    2.87		1.5131e+18
    2.88		1.5275e+18
    2.89		1.5419e+18
    2.90		1.5564e+18
    2.91		1.5709e+18
    2.92		1.5855e+18
    2.93		1.6001e+18
    2.94		1.6147e+18
    2.95		1.6293e+18
    2.96		1.6440e+18
    2.97		1.6586e+18
    2.98		1.6733e+18
    2.99		1.6879e+18
    3.00		1.7026e+18
    3.01		1.7173e+18
    3.02		1.7319e+18
    3.03		1.7465e+18
    3.04		1.7611e+18
    3.05		1.7757e+18
    3.06		1.7902e+18
    3.07		1.8047e+18
    3.08		1.8192e+18
    3.09		1.8335e+18
    3.10		1.8479e+18
    3.11		1.8621e+18
    3.12		1.8763e+18
    3.13		1.8904e+18
    3.14		1.9045e+18
    3.15		1.9184e+18
    3.16		1.9323e+18
    3.17		1.9461e+18
    3.18		1.9597e+18
    3.19		1.9733e+18
    3.20		1.9867e+18
    3.21		2.0001e+18
    3.22		2.0133e+18
    3.23		2.0264e+18
    3.24		2.0393e+18
    3.25		2.0522e+18
    3.26		2.0649e+18
    3.27		2.0774e+18
    3.28		2.0899e+18
    3.29		2.1021e+18
    3.30		2.1143e+18
    3.31		2.1263e+18
    3.32		2.1381e+18
    3.33		2.1498e+18
    3.34		2.1613e+18
    3.35		2.1727e+18
    3.36		2.1839e+18
    3.37		2.1949e+18
    3.38		2.2058e+18
    3.39		2.2165e+18
    3.40		2.2270e+18
    3.41		2.2373e+18
    3.42		2.2475e+18
    3.43		2.2575e+18
    3.44		2.2673e+18
    3.45		2.2769e+18
    3.46		2.2863e+18
    3.47		2.2956e+18
    3.48		2.3046e+18
    3.49		2.3135e+18
    3.50		2.3221e+18
    3.51		2.3306e+18
    3.52		2.3388e+18
    3.53		2.3469e+18
    3.54		2.3547e+18
    3.55		2.3623e+18
    3.56		2.3697e+18
    3.57		2.3769e+18
    3.58		2.3839e+18
    3.59		2.3906e+18
    3.60		2.3971e+18
    3.61		2.4034e+18
    3.62		2.4095e+18
    3.63		2.4154e+18
    3.64		2.4210e+18
    3.65		2.4264e+18
    3.66		2.4316e+18
    3.67		2.4365e+18
    3.68		2.4412e+18
    3.69		2.4457e+18
    3.70		2.4499e+18
    3.71		2.4539e+18
    3.72		2.4577e+18
    3.73		2.4612e+18
    3.74		2.4646e+18
    3.75		2.4676e+18
    3.76		2.4705e+18
    3.77		2.4731e+18
    3.78		2.4755e+18
    3.79		2.4776e+18
    3.80		2.4795e+18
    3.81		2.4812e+18
    3.82		2.4827e+18
    3.83		2.4839e+18
    3.84		2.4849e+18
    3.85		2.4857e+18
    3.86		2.4862e+18
    3.87		2.4865e+18
    3.88		2.4866e+18
    3.89		2.4865e+18
    3.90		2.4862e+18
    3.91		2.4856e+18
    3.92		2.4849e+18
    3.93		2.4839e+18
    3.94		2.4827e+18
    3.95		2.4813e+18
    3.96		2.4797e+18
    3.97		2.4779e+18
    3.98		2.4759e+18
    3.99		2.4736e+18
    4.00		2.4712e+18
    4.01		2.4686e+18
    4.02		2.4659e+18
    4.03		2.4629e+18
    4.04		2.4597e+18
    4.05		2.4564e+18
    4.06		2.4529e+18
    4.07		2.4492e+18
    4.08		2.4454e+18
    4.09		2.4414e+18
    4.10		2.4373e+18
    4.11		2.4330e+18
    4.12		2.4285e+18
    4.13		2.4240e+18
    4.14		2.4193e+18
    4.15		2.4145e+18
    4.16		2.4095e+18
    4.17		2.4045e+18
    4.18		2.3993e+18
    4.19		2.3941e+18
    4.20		2.3887e+18
    4.21		2.3833e+18
    4.22		2.3778e+18
    4.23		2.3722e+18
    4.24		2.3665e+18
    4.25		2.3608e+18
    4.26		2.3551e+18
    4.27		2.3492e+18
    4.28		2.3434e+18
    4.29		2.3375e+18
    4.30		2.3315e+18
    4.31		2.3256e+18
    4.32		2.3196e+18
    4.33		2.3137e+18
    4.34		2.3077e+18
    4.35		2.3017e+18
    4.36		2.2958e+18
    4.37		2.2899e+18
    4.38		2.2840e+18
    4.39		2.2781e+18
    4.40		2.2723e+18
    4.41		2.2665e+18
    4.42		2.2608e+18
    4.43		2.2552e+18
    4.44		2.2496e+18
    4.45		2.2441e+18
    4.46		2.2387e+18
    4.47		2.2334e+18
    4.48		2.2281e+18
    4.49		2.2229e+18
    4.50		2.2179e+18
    4.51		2.2129e+18
    4.52		2.2081e+18
    4.53		2.2033e+18
    4.54		2.1987e+18
    4.55		2.1943e+18
    4.56		2.1899e+18
    4.57		2.1857e+18
    4.58		2.1816e+18
    4.59		2.1777e+18
    4.60		2.1740e+18
    4.61		2.1704e+18
    4.62		2.1670e+18
    4.63		2.1638e+18
    4.64		2.1608e+18
    4.65		2.1579e+18
    4.66		2.1553e+18
    4.67		2.1528e+18
    4.68		2.1505e+18
    4.69		2.1485e+18
    4.70		2.1467e+18
    4.71		2.1450e+18
    4.72		2.1437e+18
    4.73		2.1425e+18
    4.74		2.1416e+18
    4.75		2.1409e+18
    4.76		2.1404e+18
    4.77		2.1402e+18
    4.78		2.1402e+18
    4.79		2.1405e+18
    4.80		2.1410e+18
    4.81		2.1418e+18
    4.82		2.1429e+18
    4.83		2.1443e+18
    4.84		2.1459e+18
    4.85		2.1478e+18
    4.86		2.1499e+18
    4.87		2.1524e+18
    4.88		2.1551e+18
    4.89		2.1581e+18
    4.90		2.1615e+18
    4.91		2.1651e+18
    4.92		2.1690e+18
    4.93		2.1732e+18
    4.94		2.1778e+18
    4.95		2.1826e+18
    4.96		2.1877e+18
    4.97		2.1932e+18
    4.98		2.1990e+18
    4.99		2.2051e+18
    5.00		2.2115e+18
    5.01		2.2183e+18
    5.02		2.2253e+18
    5.03		2.2327e+18
    5.04		2.2405e+18
    5.05		2.2485e+18
    5.06		2.2569e+18
    5.07		2.2656e+18
    5.08		2.2747e+18
    5.09		2.2840e+18
    5.10		2.2937e+18
    5.11		2.3038e+18
    5.12		2.3141e+18
    5.13		2.3248e+18
    5.14		2.3359e+18
    5.15		2.3472e+18
    5.16		2.3589e+18
    5.17		2.3709e+18
    5.18		2.3833e+18
    5.19		2.3960e+18
    5.20		2.4090e+18
    5.21		2.4224e+18
    5.22		2.4361e+18
    5.23		2.4502e+18
    5.24		2.4646e+18
    5.25		2.4794e+18
    5.26		2.4945e+18
    5.27		2.5100e+18
    5.28		2.5258e+18
    5.29		2.5420e+18
    5.30		2.5585e+18
    5.31		2.5754e+18
    5.32		2.5926e+18
    5.33		2.6102e+18
    5.34		2.6282e+18
    5.35		2.6465e+18
    5.36		2.6652e+18
    5.37		2.6842e+18
    5.38		2.7036e+18
    5.39		2.7233e+18
    5.40		2.7435e+18
    5.41		2.7639e+18
    5.42		2.7848e+18
    5.43		2.8060e+18
    5.44		2.8275e+18
    5.45		2.8494e+18
    5.46		2.8717e+18
    5.47		2.8943e+18
    5.48		2.9173e+18
    5.49		2.9406e+18
    5.50		2.9643e+18
    5.51		2.9883e+18
    5.52		3.0126e+18
    5.53		3.0373e+18
    5.54		3.0623e+18
    5.55		3.0877e+18
    5.56		3.1134e+18
    5.57		3.1394e+18
    5.58		3.1657e+18
    5.59		3.1924e+18
    5.60		3.2193e+18
    5.61		3.2466e+18
    5.62		3.2742e+18
    5.63		3.3021e+18
    5.64		3.3303e+18
    5.65		3.3587e+18
    5.66		3.3875e+18
    5.67		3.4165e+18
    5.68		3.4458e+18
    5.69		3.4754e+18
    5.70		3.5053e+18
    5.71		3.5355e+18
    5.72		3.5658e+18
    5.73		3.5965e+18
    5.74		3.6274e+18
    5.75		3.6585e+18
    5.76		3.6899e+18
    5.77		3.7215e+18
    5.78		3.7534e+18
    5.79		3.7855e+18
    5.80		3.8178e+18
    5.81		3.8503e+18
    5.82		3.8830e+18
    5.83		3.9159e+18
    5.84		3.9490e+18
    5.85		3.9823e+18
    5.86		4.0158e+18
    5.87		4.0494e+18
    5.88		4.0833e+18
    5.89		4.1173e+18
    5.90		4.1516e+18
    5.91		4.1860e+18
    5.92		4.2205e+18
    5.93		4.2553e+18
    5.94		4.2902e+18
    5.95		4.3253e+18
    5.96		4.3606e+18
    5.97		4.3961e+18
    5.98		4.4317e+18
    5.99		4.4675e+18
    6.00		4.5034e+18
    6.01		4.5396e+18
    6.02		4.5758e+18
    6.03		4.6122e+18
    6.04		4.6488e+18
    6.05		4.6856e+18
    6.06		4.7224e+18
    6.07		4.7595e+18
    6.08		4.7967e+18
    6.09		4.8340e+18
    6.10		4.8715e+18
    6.11		4.9091e+18
    6.12		4.9469e+18
    6.13		4.9848e+18
    6.14		5.0228e+18
    6.15		5.0610e+18
    6.16		5.0994e+18
    6.17		5.1379e+18
    6.18		5.1765e+18
    6.19		5.2152e+18
    6.20		5.2541e+18
    6.21		5.2932e+18
    6.22		5.3323e+18
    6.23		5.3716e+18
    6.24		5.4111e+18
    6.25		5.4506e+18
    6.26		5.4903e+18
    6.27		5.5301e+18
    6.28		5.5700e+18
    6.29		5.6100e+18
    6.30		5.6502e+18
    6.31		5.6904e+18
    6.32		5.7308e+18
    6.33		5.7712e+18
    6.34		5.8118e+18
    6.35		5.8525e+18
    6.36		5.8932e+18
    6.37		5.9341e+18
    6.38		5.9750e+18
    6.39		6.0161e+18
    6.40		6.0572e+18
    6.41		6.0984e+18
    6.42		6.1397e+18
    6.43		6.1811e+18
    6.44		6.2226e+18
    6.45		6.2641e+18
    6.46		6.3057e+18
    6.47		6.3474e+18
    6.48		6.3892e+18
    6.49		6.4311e+18
    6.50		6.4730e+18
    6.51		6.5150e+18
    6.52		6.5571e+18
    6.53		6.5993e+18
    6.54		6.6416e+18
    6.55		6.6839e+18
    6.56		6.7263e+18
    6.57		6.7688e+18
    6.58		6.8113e+18
    6.59		6.8540e+18
    6.60		6.8966e+18
    6.61		6.9394e+18
    6.62		6.9822e+18
    6.63		7.0250e+18
    6.64		7.0679e+18
    6.65		7.1109e+18
    6.66		7.1538e+18
    6.67		7.1968e+18
    6.68		7.2399e+18
    6.69		7.2830e+18
    6.70		7.3260e+18
    6.71		7.3691e+18
    6.72		7.4123e+18
    6.73		7.4554e+18
    6.74		7.4985e+18
    6.75		7.5416e+18
    6.76		7.5848e+18
    6.77		7.6279e+18
    6.78		7.6710e+18
    6.79		7.7140e+18
    6.80		7.7571e+18
    6.81		7.8001e+18
    6.82		7.8431e+18
    6.83		7.8860e+18
    6.84		7.9289e+18
    6.85		7.9717e+18
    6.86		8.0145e+18
    6.87		8.0573e+18
    6.88		8.0999e+18
    6.89		8.1425e+18
    6.90		8.1851e+18
    6.91		8.2275e+18
    6.92		8.2699e+18
    6.93		8.3121e+18
    6.94		8.3543e+18
    6.95		8.3964e+18
    6.96		8.4383e+18
    6.97		8.4802e+18
    6.98		8.5219e+18
    6.99		8.5636e+18
    7.00		8.6051e+18
    7.01		8.6464e+18
    7.02		8.6877e+18
    7.03		8.7288e+18
    7.04		8.7697e+18
    7.05		8.8105e+18
    7.06		8.8512e+18
    7.07		8.8917e+18
    7.08		8.9320e+18
    7.09		8.9721e+18
    7.10		9.0120e+18
    7.11		9.0518e+18
    7.12		9.0913e+18
    7.13		9.1307e+18
    7.14		9.1698e+18
    7.15		9.2087e+18
    7.16		9.2474e+18
    7.17		9.2859e+18
    7.18		9.3241e+18
    7.19		9.3620e+18
    7.20		9.3998e+18
    7.21		9.4372e+18
    7.22		9.4744e+18
    7.23		9.5114e+18
    7.24		9.5480e+18
    7.25		9.5844e+18
    7.26		9.6205e+18
    7.27		9.6563e+18
    7.28		9.6918e+18
    7.29		9.7271e+18
    7.30		9.7620e+18
    7.31		9.7966e+18
    7.32		9.8309e+18
    7.33		9.8648e+18
    7.34		9.8985e+18
    7.35		9.9318e+18
    7.36		9.9647e+18
    7.37		9.9973e+18
    7.38		1.0030e+19
    7.39		1.0061e+19
    7.40		1.0093e+19
    7.41		1.0124e+19
    7.42		1.0155e+19
    7.43		1.0185e+19
    7.44		1.0215e+19
    7.45		1.0245e+19
    7.46		1.0274e+19
    7.47		1.0303e+19
    7.48		1.0331e+19
    7.49		1.0359e+19
    7.50		1.0386e+19
    7.51		1.0413e+19
    7.52		1.0440e+19
    7.53		1.0466e+19
    7.54		1.0491e+19
    7.55		1.0516e+19
    7.56		1.0541e+19
    7.57		1.0565e+19
    7.58		1.0589e+19
    7.59		1.0612e+19
    7.60		1.0635e+19
    7.61		1.0657e+19
    7.62		1.0678e+19
    7.63		1.0699e+19
    7.64		1.0720e+19
    7.65		1.0739e+19
    7.66		1.0759e+19
    7.67		1.0778e+19
    7.68		1.0796e+19
    7.69		1.0813e+19
    7.70		1.0830e+19
    7.71		1.0847e+19
    7.72		1.0863e+19
    7.73		1.0878e+19
    7.74		1.0893e+19
    7.75		1.0907e+19
    7.76		1.0920e+19
    7.77		1.0933e+19
    7.78		1.0945e+19
    7.79		1.0957e+19
    7.80		1.0968e+19
    7.81		1.0978e+19
    7.82		1.0988e+19
    7.83		1.0997e+19
    7.84		1.1005e+19
    7.85		1.1013e+19
    7.86		1.1020e+19
    7.87		1.1026e+19
    7.88		1.1032e+19
    7.89		1.1037e+19
    7.90		1.1042e+19
    7.91		1.1046e+19
    7.92		1.1049e+19
    7.93		1.1051e+19
    7.94		1.1053e+19
    7.95		1.1054e+19
    7.96		1.1055e+19
    7.97		1.1055e+19
    7.98		1.1054e+19
    7.99		1.1053e+19
    8.00		1.1051e+19
    8.01		1.1048e+19
    8.02		1.1044e+19
    8.03		1.1040e+19
    8.04		1.1036e+19
    8.05		1.1030e+19
    8.06		1.1025e+19
    8.07		1.1018e+19
    8.08		1.1011e+19
    8.09		1.1003e+19
    8.10		1.0994e+19
    8.11		1.0985e+19
    8.12		1.0976e+19
    8.13		1.0965e+19
    8.14		1.0954e+19
    8.15		1.0943e+19
    8.16		1.0931e+19
    8.17		1.0918e+19
    8.18		1.0904e+19
    8.19		1.0891e+19
    8.20		1.0876e+19
    8.21		1.0861e+19
    8.22		1.0845e+19
    8.23		1.0829e+19
    8.24		1.0812e+19
    8.25		1.0795e+19
    8.26		1.0777e+19
    8.27		1.0758e+19
    8.28		1.0739e+19
    8.29		1.0719e+19
    8.30		1.0699e+19
    8.31		1.0678e+19
    8.32		1.0657e+19
    8.33		1.0635e+19
    8.34		1.0613e+19
    8.35		1.0590e+19
    8.36		1.0566e+19
    8.37		1.0542e+19
    8.38		1.0518e+19
    8.39		1.0493e+19
    8.40		1.0468e+19
    8.41		1.0442e+19
    8.42		1.0416e+19
    8.43		1.0389e+19
    8.44		1.0362e+19
    8.45		1.0334e+19
    8.46		1.0306e+19
    8.47		1.0278e+19
    8.48		1.0249e+19
    8.49		1.0220e+19
    8.50		1.0190e+19
    8.51		1.0160e+19
    8.52		1.0130e+19
    8.53		1.0099e+19
    8.54		1.0068e+19
    8.55		1.0037e+19
    8.56		1.0005e+19
    8.57		9.9734e+18
    8.58		9.9412e+18
    8.59		9.9089e+18
    8.60		9.8762e+18
    8.61		9.8434e+18
    8.62		9.8103e+18
    8.63		9.7770e+18
    8.64		9.7435e+18
    8.65		9.7098e+18
    8.66		9.6760e+18
    8.67		9.6420e+18
    8.68		9.6079e+18
    8.69		9.5736e+18
    8.70		9.5392e+18
    8.71		9.5047e+18
    8.72		9.4701e+18
    8.73		9.4355e+18
    8.74		9.4007e+18
    8.75		9.3659e+18
    8.76		9.3311e+18
    8.77		9.2963e+18
    8.78		9.2614e+18
    8.79		9.2265e+18
    8.80		9.1917e+18
    8.81		9.1568e+18
    8.82		9.1220e+18
    8.83		9.0872e+18
    8.84		9.0525e+18
    8.85		9.0179e+18
    8.86		8.9833e+18
    8.87		8.9488e+18
    8.88		8.9144e+18
    8.89		8.8801e+18
    8.90		8.8459e+18
    8.91		8.8119e+18
    8.92		8.7779e+18
    8.93		8.7441e+18
    8.94		8.7104e+18
    8.95		8.6769e+18
    8.96		8.6436e+18
    8.97		8.6104e+18
    8.98		8.5774e+18
    8.99		8.5446e+18
    9.00		8.5119e+18
    9.01		8.4795e+18
    9.02		8.4473e+18
    9.03		8.4153e+18
    9.04		8.3835e+18
    9.05		8.3520e+18
    9.06		8.3207e+18
    9.07		8.2896e+18
    9.08		8.2588e+18
    9.09		8.2282e+18
    9.10		8.1979e+18
    9.11		8.1679e+18
    9.12		8.1381e+18
    9.13		8.1086e+18
    9.14		8.0793e+18
    9.15		8.0503e+18
    9.16		8.0216e+18
    9.17		7.9932e+18
    9.18		7.9651e+18
    9.19		7.9373e+18
    9.20		7.9098e+18
    9.21		7.8826e+18
    9.22		7.8556e+18
    9.23		7.8290e+18
    9.24		7.8027e+18
    9.25		7.7767e+18
    9.26		7.7509e+18
    9.27		7.7255e+18
    9.28		7.7004e+18
    9.29		7.6756e+18
    9.30		7.6512e+18
    9.31		7.6270e+18
    9.32		7.6031e+18
    9.33		7.5796e+18
    9.34		7.5563e+18
    9.35		7.5334e+18
    9.36		7.5107e+18
    9.37		7.4884e+18
    9.38		7.4664e+18
    9.39		7.4447e+18
    9.40		7.4232e+18
    9.41		7.4021e+18
    9.42		7.3813e+18
    9.43		7.3607e+18
    9.44		7.3405e+18
    9.45		7.3205e+18
    9.46		7.3008e+18
    9.47		7.2814e+18
    9.48		7.2623e+18
    9.49		7.2434e+18
